1.544427
20.0141	41.7778	2.1545
20.0424	42.2222	2.1660
20.0707	41.3333	2.1430
20.0989	43.1111	2.1886
20.1272	41.5556	2.1488
20.1555	40.1111	2.1111
20.1837	43.0000	2.1858
20.2120	40.7778	2.1286
20.2403	41.7778	2.1545
20.2685	39.2222	2.0876
20.2968	40.2222	2.1140
20.3251	38.1111	2.0578
20.3533	41.7778	2.1545
20.3816	41.6667	2.1517
20.4099	39.8889	2.1053
20.4381	38.6667	2.0728
20.4664	44.2222	2.2167
20.4946	38.6667	2.0728
20.5229	39.4444	2.0935
20.5512	43.3333	2.1943
20.5794	38.1111	2.0578
20.6077	41.8889	2.1574
20.6360	34.2222	1.9500
20.6642	39.2222	2.0876
20.6925	36.5556	2.0154
20.7208	35.4444	1.9845
20.7490	40.2105	2.0573
20.7773	35.1579	1.9238
20.8056	37.0526	1.9749
20.8338	38.5263	2.0138
20.8621	40.1053	2.0547
20.8904	40.9474	2.0761
20.9186	35.7895	1.9410
20.9469	38.9474	2.0248
20.9752	37.1579	1.9777
21.0034	38.5263	2.0138
21.0317	37.8947	1.9972
21.0600	33.4737	1.8771
21.0882	39.4737	2.0384
21.1165	38.9474	2.0248
21.1448	34.4211	1.9035
21.1730	38.3158	2.0083
21.2013	37.1579	1.9777
21.2296	37.6842	1.9917
21.2578	40.2105	2.0573
21.2861	38.0000	1.9494
21.3143	35.2000	1.8762
21.3426	35.5000	1.8841
21.3709	38.2000	1.9545
21.3991	38.9000	1.9723
21.4274	40.0000	2.0000
21.4557	33.6000	1.8330
21.4839	36.5000	1.9105
21.5122	41.6000	2.0396
21.5405	34.6000	1.8601
21.5687	38.4000	1.9596
21.5970	34.3000	1.8520
21.6253	36.0000	1.8974
21.6535	35.6000	1.8868
21.6818	35.2000	1.8762
21.7101	36.5000	1.9105
21.7383	34.8000	1.8655
21.7666	30.3000	1.7407
21.7949	36.3000	1.9053
21.8231	33.2000	1.8221
21.8514	36.6000	1.9131
21.8797	33.1000	1.8193
21.9079	36.5000	1.9105
21.9362	38.0000	1.9494
21.9645	33.2000	1.8221
21.9927	33.5000	1.8303
22.0210	33.9000	1.8412
22.0493	32.5000	1.8028
22.0775	35.6000	1.8868
22.1058	35.8000	1.8921
22.1340	32.5000	1.8028
22.1623	32.3000	1.7972
22.1906	32.9000	1.8138
22.2188	33.7000	1.8358
22.2471	37.3000	1.9313
22.2754	35.2000	1.8762
22.3036	27.6000	1.6613
22.3319	30.5000	1.7464
22.3602	33.7000	1.8358
22.3884	30.3000	1.7407
22.4167	31.8000	1.7833
22.4450	32.3000	1.7972
22.4732	32.0000	1.7889
22.5015	30.6000	1.7493
22.5298	33.1000	1.8193
22.5580	34.5000	1.8574
22.5863	36.4000	1.9079
22.6146	31.1000	1.7635
22.6428	37.6000	1.9391
22.6711	29.5000	1.7176
22.6994	31.4000	1.7720
22.7276	34.1000	1.8466
22.7559	31.3000	1.7692
22.7842	29.8000	1.7263
22.8124	28.8000	1.6971
22.8407	33.5000	1.8303
22.8690	35.1000	1.8735
22.8972	32.5000	1.8028
22.9255	32.7000	1.8083
22.9538	30.8000	1.7550
22.9820	30.2000	1.7378
23.0103	35.6000	1.8868
23.0385	28.9000	1.7000
23.0668	32.0000	1.7889
23.0951	34.2000	1.8493
23.1233	29.8000	1.7263
23.1516	32.4000	1.8000
23.1799	31.2000	1.7664
23.2081	32.5000	1.8028
23.2364	30.1000	1.7349
23.2647	30.4000	1.7436
23.2929	32.0000	1.7889
23.3212	32.5000	1.8028
23.3495	28.6000	1.6912
23.3777	31.0000	1.7607
23.4060	30.0000	1.7321
23.4343	31.3000	1.7692
23.4625	32.9000	1.8138
23.4908	33.1000	1.8193
23.5191	27.3000	1.6523
23.5473	31.7000	1.7804
23.5756	30.5000	1.7464
23.6039	30.8000	1.7550
23.6321	28.9000	1.7000
23.6604	28.6000	1.6912
23.6887	33.5000	1.8303
23.7169	30.9000	1.7578
23.7452	29.5000	1.7176
23.7735	32.4000	1.8000
23.8017	28.6000	1.6912
23.8300	30.1000	1.7349
23.8582	32.0000	1.7889
23.8865	32.4000	1.8000
23.9148	31.7000	1.7804
23.9430	28.7000	1.6941
23.9713	26.6000	1.6310
23.9996	28.0000	1.6733
24.0278	26.5000	1.6279
24.0561	31.0000	1.7607
24.0844	31.1000	1.7635
24.1126	28.7000	1.6941
24.1409	28.5000	1.6882
24.1692	25.4000	1.5937
24.1974	28.9000	1.7000
24.2257	27.3000	1.6523
24.2540	30.4000	1.7436
24.2822	29.3000	1.7117
24.3105	28.1000	1.6763
24.3388	27.3000	1.6523
24.3670	29.8000	1.7263
24.3953	29.6000	1.7205
24.4236	26.8000	1.6371
24.4518	29.7000	1.7234
24.4801	28.8000	1.6971
24.5084	24.7000	1.5716
24.5366	30.7000	1.7521
24.5649	28.9000	1.7000
24.5932	28.8000	1.6971
24.6214	26.9000	1.6401
24.6497	27.4000	1.6553
24.6780	29.0000	1.7029
24.7062	29.2000	1.7088
24.7345	29.2000	1.7088
24.7627	27.3000	1.6523
24.7910	28.8000	1.6971
24.8193	25.3000	1.5906
24.8475	25.2000	1.5875
24.8758	27.6000	1.6613
24.9041	28.6000	1.6912
24.9323	26.9000	1.6401
24.9606	26.4000	1.6248
24.9889	25.1000	1.5843
25.0171	29.2000	1.7088
25.0454	27.5000	1.6583
25.0737	26.7000	1.6340
25.1019	28.6000	1.6912
25.1302	25.9048	1.5707
25.1585	27.9048	1.6302
25.1867	26.0952	1.5765
25.2150	26.1905	1.5793
25.2433	27.3333	1.6134
25.2715	27.2381	1.6106
25.2998	29.2381	1.6687
25.3281	27.7143	1.6246
25.3563	26.5714	1.5908
25.3846	28.8571	1.6578
25.4129	25.1429	1.5474
25.4411	24.2857	1.5208
25.4694	26.7619	1.5965
25.4977	26.7619	1.5965
25.5259	26.5714	1.5908
25.5542	28.7619	1.6551
25.5824	25.4286	1.5562
25.6107	26.6667	1.5936
25.6390	27.7143	1.6246
25.6672	26.4762	1.5879
25.6955	28.8571	1.6578
25.7238	27.8182	1.5903
25.7520	26.2727	1.5455
25.7803	24.7273	1.4993
25.8086	26.7273	1.5588
25.8368	25.2727	1.5158
25.8651	25.1818	1.5130
25.8934	25.7273	1.5293
25.9216	25.5455	1.5239
25.9499	24.6364	1.4966
25.9782	23.1818	1.4517
26.0064	24.9091	1.5048
26.0347	24.3636	1.4882
26.0630	26.2727	1.5455
26.0912	23.1818	1.4517
26.1195	26.4545	1.5508
26.1478	25.8182	1.5320
26.1760	24.3636	1.4882
26.2043	24.2727	1.4855
26.2326	26.0909	1.5401
26.2608	24.1818	1.4827
26.2891	24.2727	1.4855
26.3174	23.7273	1.4687
26.3456	26.6364	1.5561
26.3739	24.0000	1.4771
26.4021	24.9091	1.5048
26.4304	24.4545	1.4910
26.4587	26.0000	1.5374
26.4869	24.3636	1.4882
26.5152	20.7273	1.3727
26.5435	25.6364	1.5266
26.5717	26.7273	1.5588
26.6000	25.3636	1.5185
26.6283	24.0909	1.4799
26.6565	24.4545	1.4910
26.6848	25.5455	1.5239
26.7131	24.4545	1.4910
26.7413	24.3636	1.4882
26.7696	23.0000	1.4460
26.7979	26.2727	1.5455
26.8261	23.5455	1.4630
26.8544	23.3636	1.4574
26.8827	24.9091	1.5048
26.9109	21.1818	1.3877
26.9392	26.7273	1.5588
26.9675	24.3636	1.4882
26.9957	24.0909	1.4799
27.0240	23.7273	1.4687
27.0523	24.6364	1.4966
27.0805	24.6364	1.4966
27.1088	20.4545	1.3636
27.1371	23.7273	1.4687
27.1653	25.0909	1.5103
27.1936	25.5455	1.5239
27.2219	20.0000	1.3484
27.2501	22.4545	1.4287
27.2784	23.6364	1.4659
27.3066	23.7273	1.4687
27.3349	22.8182	1.4403
27.3632	21.3636	1.3936
27.3914	21.8182	1.4084
27.4197	23.2727	1.4545
27.4480	23.6364	1.4659
27.4762	22.5455	1.4316
27.5045	24.2727	1.4855
27.5328	23.7273	1.4687
27.5610	22.2727	1.4230
27.5893	22.5455	1.4316
27.6176	22.2727	1.4230
27.6458	25.6364	1.5266
27.6741	23.9091	1.4743
27.7024	22.9091	1.4431
27.7306	22.3636	1.4259
27.7589	22.6364	1.4345
27.7872	23.1818	1.4517
27.8154	23.7273	1.4687
27.8437	22.3636	1.4259
27.8720	22.1818	1.4200
27.9002	22.0909	1.4171
27.9285	23.8182	1.4715
27.9568	23.1818	1.4517
27.9850	23.8182	1.4715
28.0133	22.4545	1.4287
28.0416	19.7273	1.3392
28.0698	21.7273	1.4054
28.0981	25.0909	1.5103
28.1263	22.6364	1.4345
28.1546	23.3636	1.4574
28.1829	21.1818	1.3877
28.2111	20.4545	1.3636
28.2394	23.9091	1.4743
28.2677	23.2727	1.4545
28.2959	21.6364	1.4025
28.3242	23.7273	1.4687
28.3525	25.0000	1.5076
28.3807	21.9091	1.4113
28.4090	21.7273	1.4054
28.4373	22.7273	1.4374
28.4655	22.9091	1.4431
28.4938	21.5455	1.3995
28.5221	21.9091	1.4113
28.5503	21.4545	1.3966
28.5786	23.1818	1.4517
28.6069	20.6364	1.3697
28.6351	22.8182	1.4403
28.6634	21.0909	1.3847
28.6917	22.0909	1.4171
28.7199	21.2727	1.3906
28.7482	20.4545	1.3636
28.7765	23.0909	1.4489
28.8047	22.7273	1.4374
28.8330	21.5455	1.3995
28.8613	18.5455	1.2984
28.8895	22.1818	1.4200
28.9178	22.3636	1.4259
28.9461	22.6364	1.4345
28.9743	22.6364	1.4345
29.0026	18.5455	1.2984
29.0308	20.5455	1.3667
29.0591	18.3636	1.2921
29.0874	21.1818	1.3877
29.1156	22.3636	1.4259
29.1439	21.7273	1.4054
29.1722	20.8182	1.3757
29.2004	21.2727	1.3906
29.2287	23.0000	1.4460
29.2570	20.7273	1.3727
29.2852	20.9091	1.3787
29.3135	20.8182	1.3757
29.3418	20.4545	1.3636
29.3700	21.6364	1.4025
29.3983	22.2727	1.4230
29.4266	21.3636	1.3936
29.4548	22.0000	1.4142
29.4831	21.7391	1.3749
29.5114	20.8696	1.3471
29.5396	19.6522	1.3072
29.5679	19.9130	1.3159
29.5962	19.6522	1.3072
29.6244	21.9130	1.3804
29.6527	20.0000	1.3188
29.6810	19.3913	1.2985
29.7092	22.9565	1.4129
29.7375	20.5217	1.3359
29.7658	20.0870	1.3216
29.7940	20.3478	1.3302
29.8223	19.3043	1.2956
29.8505	18.5217	1.2691
29.8788	19.4783	1.3014
29.9071	22.7826	1.4075
29.9353	19.6522	1.3072
29.9636	18.0870	1.2541
29.9919	17.7391	1.2420
30.0201	21.8261	1.3777
30.0484	20.1739	1.3245
30.0767	20.2609	1.3273
30.1049	20.8696	1.3471
30.1332	17.6667	1.2134
30.1615	20.3333	1.3017
30.1897	19.9167	1.2883
30.2180	18.4167	1.2388
30.2463	21.0000	1.3229
30.2745	18.3333	1.2360
30.3028	23.3333	1.3944
30.3311	18.7500	1.2500
30.3593	21.0833	1.3255
30.3876	20.0000	1.2910
30.4159	20.2500	1.2990
30.4441	21.3333	1.3333
30.4724	22.4167	1.3668
30.5007	18.8333	1.2528
30.5289	18.7500	1.2500
30.5572	19.0833	1.2611
30.5855	20.0833	1.2937
30.6137	20.1667	1.2964
30.6420	20.4167	1.3044
30.6702	19.3333	1.2693
30.6985	20.6667	1.3123
30.7268	20.8333	1.3176
30.7550	17.6667	1.2134
30.7833	17.8333	1.2191
30.8116	18.3333	1.2360
30.8398	19.0000	1.2583
30.8681	18.4167	1.2388
30.8964	21.5000	1.3385
30.9246	19.8333	1.2856
30.9529	18.7500	1.2500
30.9812	20.9167	1.3202
31.0094	17.4167	1.2047
31.0377	18.1667	1.2304
31.0660	17.3333	1.2019
31.0942	19.0000	1.2583
31.1225	19.8333	1.2856
31.1508	18.7500	1.2500
31.1790	17.5833	1.2105
31.2073	17.6667	1.2134
31.2356	20.1667	1.2964
31.2638	17.5000	1.2076
31.2921	18.6667	1.2472
31.3204	19.7500	1.2829
31.3486	19.2500	1.2666
31.3769	17.6667	1.2134
31.4052	17.4167	1.2047
31.4334	20.1667	1.2964
31.4617	18.5833	1.2444
31.4900	17.0000	1.1902
31.5182	20.3333	1.3017
31.5465	18.5000	1.2416
31.5747	17.5000	1.2076
31.6030	19.7500	1.2829
31.6313	18.2500	1.2332
31.6595	19.1667	1.2638
31.6878	18.4167	1.2388
31.7161	20.0833	1.2937
31.7443	19.0000	1.2583
31.7726	18.0833	1.2276
31.8009	19.0000	1.2583
31.8291	19.8333	1.2856
31.8574	18.9167	1.2555
31.8857	16.9167	1.1873
31.9139	17.8333	1.2191
31.9422	18.8333	1.2528
31.9705	20.0000	1.2910
31.9987	19.0000	1.2583
32.0270	18.3333	1.2360
32.0553	17.2500	1.1990
32.0835	19.0000	1.2583
32.1118	19.2500	1.2666
32.1401	14.4167	1.0961
32.1683	18.6667	1.2472
32.1966	15.7500	1.1456
32.2249	15.5833	1.1396
32.2531	19.5000	1.2748
32.2814	20.5000	1.3070
32.3097	17.0000	1.1902
32.3379	17.1667	1.1961
32.3662	17.2500	1.1990
32.3944	18.4167	1.2388
32.4227	17.6667	1.2134
32.4510	19.0000	1.2583
32.4792	18.2500	1.2332
32.5075	15.6667	1.1426
32.5358	16.9167	1.1873
32.5640	16.8333	1.1844
32.5923	18.8333	1.2528
32.6206	16.1667	1.1607
32.6488	18.6667	1.2472
32.6771	17.1667	1.1961
32.7054	16.4167	1.1696
32.7336	16.0833	1.1577
32.7619	16.0833	1.1577
32.7902	18.2500	1.2332
32.8184	16.5833	1.1756
32.8467	17.7500	1.2162
32.8750	18.2500	1.2332
32.9032	15.2500	1.1273
32.9315	15.8333	1.1487
32.9598	17.1667	1.1961
32.9880	18.5000	1.2416
33.0163	17.5833	1.2105
33.0446	17.4167	1.2047
33.0728	18.0000	1.2247
33.1011	19.5000	1.2748
33.1294	19.3333	1.2693
33.1576	16.7500	1.1815
33.1859	18.0000	1.2247
33.2142	17.9167	1.2219
33.2424	17.5833	1.2105
33.2707	17.5833	1.2105
33.2989	15.3333	1.1304
33.3272	18.5833	1.2444
33.3555	16.4167	1.1696
33.3837	15.2500	1.1273
33.4120	18.1667	1.2304
33.4403	16.5000	1.1726
33.4685	17.5000	1.2076
33.4968	17.5833	1.2105
33.5251	16.8333	1.1844
33.5533	17.3333	1.2019
33.5816	17.0833	1.1932
33.6099	17.6667	1.2134
33.6381	16.6667	1.1785
33.6664	16.2500	1.1637
33.6947	15.2500	1.1273
33.7229	18.4167	1.2388
33.7512	15.3333	1.1304
33.7795	16.7500	1.1815
33.8077	14.6667	1.1055
33.8360	17.1667	1.1961
33.8643	17.8400	1.1947
33.8925	16.2400	1.1398
33.9208	15.8400	1.1257
33.9491	15.9200	1.1285
33.9773	15.6000	1.1171
34.0056	15.6800	1.1200
34.0339	16.5600	1.1510
34.0621	19.0400	1.2342
34.0904	15.8400	1.1257
34.1186	17.9200	1.1973
34.1469	16.6400	1.1538
34.1752	15.7600	1.1229
34.2034	16.6400	1.1538
34.2317	15.8400	1.1257
34.2600	17.8400	1.1947
34.2882	16.0000	1.1314
34.3165	15.8400	1.1257
34.3448	16.0800	1.1342
34.3730	16.5600	1.1510
34.4013	15.7600	1.1229
34.4296	17.4400	1.1812
34.4578	17.3600	1.1785
34.4861	17.1200	1.1703
34.5144	17.2800	1.1758
34.5426	16.4800	1.1482
34.5709	15.5385	1.0933
34.5992	15.9231	1.1067
34.6274	16.0000	1.1094
34.6557	17.6923	1.1666
34.6840	16.0769	1.1121
34.7122	14.6154	1.0603
34.7405	16.0000	1.1094
34.7688	16.1538	1.1147
34.7970	17.3846	1.1564
34.8253	17.7692	1.1691
34.8536	14.3077	1.0491
34.8818	16.5385	1.1279
34.9101	16.0769	1.1121
34.9383	17.1538	1.1487
34.9666	14.3846	1.0519
34.9949	14.4615	1.0547
35.0231	17.3077	1.1538
35.0514	16.1538	1.1147
35.0797	15.0000	1.0742
35.1079	16.0769	1.1121
35.1362	16.3846	1.1227
35.1645	15.5385	1.0933
35.1927	16.6923	1.1331
35.2210	15.9231	1.1067
35.2493	16.0000	1.1094
35.2775	14.2308	1.0463
35.3058	14.3846	1.0519
35.3341	15.7692	1.1014
35.3623	15.0769	1.0769
35.3906	16.2308	1.1174
35.4189	15.3846	1.0879
35.4471	15.6923	1.0987
35.4754	16.3846	1.1227
35.5037	15.3077	1.0851
35.5319	14.7692	1.0659
35.5602	14.8462	1.0686
35.5885	16.1538	1.1147
35.6167	14.5385	1.0575
35.6450	17.3077	1.1538
35.6733	15.6154	1.0960
35.7015	16.2308	1.1174
35.7298	16.0000	1.1094
35.7581	15.3077	1.0851
35.7863	15.6923	1.0987
35.8146	16.5385	1.1279
35.8428	17.3077	1.1538
35.8711	15.0000	1.0742
35.8994	15.3077	1.0851
35.9276	16.4615	1.1253
35.9559	16.5385	1.1279
35.9842	14.9231	1.0714
36.0124	15.2308	1.0824
36.0407	15.9231	1.1067
36.0690	14.3077	1.0491
36.0972	14.8462	1.0686
36.1255	15.6154	1.0960
36.1538	15.6923	1.0987
36.1820	15.8462	1.1041
36.2103	16.0000	1.1094
36.2386	13.1538	1.0059
36.2668	14.0000	1.0377
36.2951	15.0769	1.0769
36.3234	15.8462	1.1041
36.3516	15.9231	1.1067
36.3799	15.4615	1.0906
36.4082	16.7692	1.1358
36.4364	17.0000	1.1435
36.4647	15.3077	1.0851
36.4930	15.6154	1.0960
36.5212	15.3846	1.0879
36.5495	15.7692	1.1014
36.5778	17.0000	1.1435
36.6060	17.3077	1.1538
36.6343	13.3077	1.0118
36.6625	15.5385	1.0933
36.6908	15.1538	1.0797
36.7191	15.3077	1.0851
36.7473	14.3077	1.0491
36.7756	14.9231	1.0714
36.8039	15.3077	1.0851
36.8321	14.8462	1.0686
36.8604	17.0769	1.1461
36.8887	14.6154	1.0603
36.9169	15.6923	1.0987
36.9452	16.1538	1.1147
36.9735	17.2308	1.1513
37.0017	15.6154	1.0960
37.0300	17.3077	1.1538
37.0583	15.0769	1.0769
37.0865	17.3077	1.1538
37.1148	14.5385	1.0575
37.1431	15.2308	1.0824
37.1713	14.0769	1.0406
37.1996	14.4615	1.0547
37.2279	14.9231	1.0714
37.2561	14.1538	1.0434
37.2844	15.0769	1.0769
37.3127	15.9231	1.1067
37.3409	14.8462	1.0686
37.3692	15.7692	1.1014
37.3975	15.0769	1.0769
37.4257	15.9231	1.1067
37.4540	16.0769	1.1121
37.4823	15.3077	1.0851
37.5105	14.9231	1.0714
37.5388	14.6154	1.0603
37.5670	16.5385	1.1279
37.5953	14.0769	1.0406
37.6236	15.1538	1.0797
37.6518	15.0000	1.0742
37.6801	12.7692	0.9911
37.7084	13.7692	1.0292
37.7366	16.6154	1.1305
37.7649	15.5385	1.0933
37.7932	14.2308	1.0463
37.8214	15.1538	1.0797
37.8497	15.2308	1.0824
37.8780	13.6154	1.0234
37.9062	14.3077	1.0491
37.9345	15.3077	1.0851
37.9628	15.7692	1.1014
37.9910	14.6923	1.0631
38.0193	15.5385	1.0933
38.0476	15.6154	1.0960
38.0758	17.3077	1.1538
38.1041	15.6923	1.0987
38.1324	15.5385	1.0933
38.1606	15.1538	1.0797
38.1889	18.1538	1.1817
38.2172	16.5385	1.1279
38.2454	16.6667	1.1111
38.2737	16.7407	1.1136
38.3020	19.2593	1.1944
38.3302	16.9630	1.1209
38.3585	19.0370	1.1875
38.3867	19.5556	1.2036
38.4150	18.6667	1.1759
38.4433	18.5185	1.1712
38.4715	19.7778	1.2104
38.4998	20.6667	1.2373
38.5281	18.3704	1.1665
38.5563	20.6667	1.2373
38.5846	20.8148	1.2417
38.6129	21.4074	1.2593
38.6411	21.0370	1.2483
38.6694	22.9630	1.3042
38.6977	24.1481	1.3374
38.7259	25.3333	1.3699
38.7542	26.4444	1.3996
38.7825	28.2222	1.4459
38.8107	30.6667	1.5072
38.8390	28.1481	1.4440
38.8673	29.3333	1.4741
38.8955	29.4815	1.4778
38.9238	32.0741	1.5414
38.9521	31.1111	1.5181
38.9803	32.8889	1.5608
39.0086	35.3571	1.5892
39.0369	36.4286	1.6131
39.0651	37.5000	1.6366
39.0934	41.7143	1.7261
39.1217	46.0000	1.8127
39.1499	46.8571	1.8295
39.1782	54.5000	1.9730
39.2064	57.1429	2.0203
39.2347	55.7143	1.9949
39.2630	65.0000	2.1547
39.2912	73.7143	2.2946
39.3195	77.0000	2.3452
39.3478	90.2857	2.5395
39.3760	92.0714	2.5645
39.4043	106.3571	2.7563
39.4326	122.5000	2.9580
39.4608	135.4286	3.1102
39.4891	151.2857	3.2873
39.5174	164.3571	3.4263
39.5456	188.7143	3.6715
39.5739	213.0000	3.9005
39.6022	223.1429	3.9923
39.6304	244.4286	4.1784
39.6587	275.2857	4.4343
39.6870	290.5000	4.5552
39.7152	303.0000	4.6522
39.7435	320.4286	4.7841
39.7718	309.5714	4.7024
39.8000	316.5000	4.7547
39.8283	308.1429	4.6915
39.8566	280.0000	4.4721
39.8848	266.0000	4.3589
39.9131	232.9286	4.0789
39.9414	204.4286	3.8213
39.9696	182.9286	3.6147
39.9979	151.1429	3.2857
40.0262	128.4286	3.0288
40.0544	105.3571	2.7433
40.0827	94.2143	2.5941
40.1109	82.4286	2.4265
40.1392	68.2857	2.2085
40.1675	59.0000	2.0529
40.1957	54.5000	1.9730
40.2240	51.9286	1.9259
40.2523	47.5714	1.8434
40.2805	41.3571	1.7187
40.3088	36.3571	1.6115
40.3371	35.2857	1.5876
40.3653	33.0714	1.5370
40.3936	30.3571	1.4725
40.4219	29.2857	1.4463
40.4501	29.6429	1.4551
40.4784	27.9286	1.4124
40.5067	26.2857	1.3702
40.5349	27.5000	1.4015
40.5632	22.8571	1.2778
40.5915	22.3571	1.2637
40.6197	21.8571	1.2495
40.6480	22.7143	1.2738
40.6763	19.7143	1.1867
40.7045	20.7143	1.2164
40.7328	20.2143	1.2016
40.7611	19.0714	1.1672
40.7893	20.0714	1.1974
40.8176	16.1429	1.0738
40.8459	17.0714	1.1043
40.8741	18.6429	1.1540
40.9024	17.6429	1.1226
40.9306	16.5714	1.0880
40.9589	17.9286	1.1316
40.9872	15.6429	1.0570
41.0154	16.0714	1.0714
41.0437	17.1429	1.1066
41.0720	15.7143	1.0595
41.1002	16.6429	1.0903
41.1285	15.5714	1.0546
41.1568	14.1429	1.0051
41.1850	14.7857	1.0277
41.2133	17.4286	1.1157
41.2416	15.5714	1.0546
41.2698	17.7857	1.1271
41.2981	15.5000	1.0522
41.3264	14.2857	1.0102
41.3546	14.2143	1.0076
41.3829	14.4286	1.0152
41.4112	12.9286	0.9610
41.4394	14.5714	1.0202
41.4677	13.2857	0.9742
41.4960	14.1429	1.0051
41.5242	15.2143	1.0425
41.5525	14.3571	1.0127
41.5808	14.7857	1.0277
41.6090	15.8571	1.0643
41.6373	14.9286	1.0326
41.6656	12.7143	0.9530
41.6938	13.0000	0.9636
41.7221	13.3571	0.9768
41.7504	13.3571	0.9768
41.7786	14.6429	1.0227
41.8069	13.1429	0.9689
41.8351	13.0000	0.9636
41.8634	12.5714	0.9476
41.8917	13.5000	0.9820
41.9199	13.0000	0.9636
41.9482	12.0000	0.9258
41.9765	11.9286	0.9231
42.0047	13.1429	0.9689
42.0330	13.7857	0.9923
42.0613	11.7857	0.9175
42.0895	10.7857	0.8777
42.1178	14.0714	1.0025
42.1461	12.0000	0.9258
42.1743	12.7143	0.9530
42.2026	14.3571	1.0127
42.2309	12.7857	0.9556
42.2591	10.8571	0.8806
42.2874	12.0714	0.9286
42.3157	13.1429	0.9689
42.3439	11.3571	0.9007
42.3722	13.6429	0.9872
42.4005	13.3571	0.9768
42.4287	12.6429	0.9503
42.4570	14.1429	1.0051
42.4853	11.0714	0.8893
42.5135	13.0000	0.9636
42.5418	11.6429	0.9119
42.5701	12.0714	0.9286
42.5983	13.0345	0.9481
42.6266	11.3793	0.8859
42.6548	13.3103	0.9581
42.6831	11.9310	0.9071
42.7114	13.8621	0.9778
42.7396	11.6552	0.8966
42.7679	13.3793	0.9606
42.7962	13.4483	0.9631
42.8244	13.1724	0.9531
42.8527	13.9310	0.9802
42.8810	15.1724	1.0229
42.9092	16.2759	1.0595
42.9375	14.8276	1.0112
42.9658	13.2414	0.9556
42.9940	13.3793	0.9606
43.0223	13.4483	0.9631
43.0506	16.0690	1.0527
43.0788	13.8621	0.9778
43.1071	12.9655	0.9456
43.1354	13.5862	0.9680
43.1636	12.6897	0.9355
43.1919	13.1724	0.9531
43.2202	12.9655	0.9456
43.2484	11.5172	0.8912
43.2767	11.4483	0.8886
43.3050	11.7931	0.9018
43.3332	10.2069	0.8390
43.3615	11.2414	0.8805
43.3898	11.8621	0.9045
43.4180	12.3333	0.9068
43.4463	10.7333	0.8459
43.4745	11.6000	0.8794
43.5028	12.2000	0.9018
43.5311	10.9333	0.8537
43.5593	13.6000	0.9522
43.5876	12.2000	0.9018
43.6159	10.5333	0.8380
43.6441	11.4667	0.8743
43.6724	12.0667	0.8969
43.7007	11.3333	0.8692
43.7289	11.2000	0.8641
43.7572	12.1333	0.8994
43.7855	12.4000	0.9092
43.8137	11.4667	0.8743
43.8420	11.8000	0.8869
43.8703	12.2667	0.9043
43.8985	12.0000	0.8944
43.9268	9.5333	0.7972
43.9551	12.6000	0.9165
43.9833	11.7333	0.8844
44.0116	11.6667	0.8819
44.0399	10.8667	0.8511
44.0681	11.1333	0.8615
44.0964	12.6667	0.9189
44.1247	13.3333	0.9428
44.1529	10.6000	0.8406
44.1812	11.8000	0.8869
44.2095	11.0667	0.8589
44.2377	11.8000	0.8869
44.2660	11.4000	0.8718
44.2943	11.3333	0.8692
44.3225	11.0000	0.8563
44.3508	10.2667	0.8273
44.3790	10.9333	0.8537
44.4073	10.5333	0.8380
44.4356	11.8000	0.8869
44.4638	10.8000	0.8485
44.4921	11.6667	0.8819
44.5204	11.4000	0.8718
44.5486	11.6000	0.8794
44.5769	11.4000	0.8718
44.6052	11.1333	0.8615
44.6334	9.4667	0.7944
44.6617	10.4667	0.8353
44.6900	13.6000	0.9522
44.7182	10.6667	0.8433
44.7465	10.4000	0.8327
44.7748	10.5333	0.8380
44.8030	10.5333	0.8380
44.8313	10.0667	0.8192
44.8596	10.2667	0.8273
44.8878	11.8667	0.8894
44.9161	11.4667	0.8743
44.9444	10.6000	0.8406
44.9726	11.4000	0.8718
45.0009	11.8000	0.8869
45.0292	10.0667	0.8192
45.0574	10.4667	0.8353
45.0857	11.2000	0.8641
45.1140	11.0000	0.8563
45.1422	10.0000	0.8165
45.1705	12.9333	0.9286
45.1987	10.0000	0.8165
45.2270	10.6667	0.8433
45.2553	10.5333	0.8380
45.2835	11.2000	0.8641
45.3118	10.5333	0.8380
45.3401	11.6000	0.8794
45.3683	11.8667	0.8894
45.3966	10.6000	0.8406
45.4249	11.0000	0.8563
45.4531	9.7333	0.8055
45.4814	10.7333	0.8459
45.5097	10.5333	0.8380
45.5379	10.7333	0.8459
45.5662	11.1333	0.8615
45.5945	10.3333	0.8300
45.6227	10.8667	0.8511
45.6510	11.1333	0.8615
45.6793	10.1333	0.8219
45.7075	8.6000	0.7572
45.7358	11.2667	0.8667
45.7641	10.6667	0.8433
45.7923	10.1333	0.8219
45.8206	11.0667	0.8589
45.8489	10.8667	0.8511
45.8771	11.3333	0.8692
45.9054	11.2667	0.8667
45.9337	11.7333	0.8844
45.9619	11.0667	0.8589
45.9902	10.8667	0.8511
46.0184	10.5333	0.8380
46.0467	11.8000	0.8869
46.0750	11.6000	0.8794
46.1032	10.1333	0.8219
46.1315	11.2667	0.8667
46.1598	11.0667	0.8589
46.1880	11.2000	0.8641
46.2163	10.1333	0.8219
46.2446	10.2667	0.8273
46.2728	8.7333	0.7630
46.3011	11.1333	0.8615
46.3294	11.6000	0.8794
46.3576	10.6667	0.8433
46.3859	10.6667	0.8433
46.4142	9.8000	0.8083
46.4424	12.0667	0.8969
46.4707	10.3333	0.8300
46.4990	10.0667	0.8192
46.5272	11.3333	0.8692
46.5555	9.8667	0.8110
46.5838	10.5806	0.8262
46.6120	10.0000	0.8032
46.6403	10.0645	0.8058
46.6686	11.0968	0.8461
46.6968	10.8387	0.8362
46.7251	10.5161	0.8237
46.7534	11.2258	0.8510
46.7816	10.3871	0.8186
46.8099	10.0000	0.8032
46.8382	10.5806	0.8262
46.8664	11.7419	0.8704
46.8947	9.8065	0.7954
46.9229	9.9355	0.8006
46.9512	10.7097	0.8312
46.9795	10.9677	0.8412
47.0077	9.5484	0.7849
47.0360	11.0323	0.8437
47.0643	10.5161	0.8237
47.0925	9.4839	0.7822
47.1208	11.6129	0.8656
47.1491	10.2581	0.8135
47.1773	9.4194	0.7796
47.2056	10.2581	0.8135
47.2339	9.7419	0.7928
47.2621	9.1613	0.7688
47.2904	8.7742	0.7524
47.3187	9.9355	0.8006
47.3469	9.4839	0.7822
47.3752	10.5161	0.8237
47.4035	10.6452	0.8287
47.4317	10.3226	0.8161
47.4600	9.0000	0.7500
47.4883	10.2500	0.8004
47.5165	10.0000	0.7906
47.5448	11.3750	0.8432
47.5731	9.8750	0.7856
47.6013	9.1250	0.7552
47.6296	9.2500	0.7603
47.6579	8.6875	0.7369
47.6861	8.3750	0.7235
47.7144	9.3125	0.7629
47.7426	11.0000	0.8292
47.7709	10.4375	0.8077
47.7992	8.8750	0.7448
47.8274	9.4375	0.7680
47.8557	8.9375	0.7474
47.8840	8.4375	0.7262
47.9122	10.5000	0.8101
47.9405	10.3125	0.8028
47.9688	8.2500	0.7181
47.9970	10.2500	0.8004
48.0253	8.8750	0.7448
48.0536	10.4375	0.8077
48.0818	9.0000	0.7500
48.1101	10.0000	0.7906
48.1384	9.7500	0.7806
48.1666	9.5625	0.7731
48.1949	8.4375	0.7262
48.2232	9.3125	0.7629
48.2514	8.5625	0.7315
48.2797	8.7500	0.7395
48.3080	10.3125	0.8028
48.3362	9.7500	0.7806
48.3645	9.8125	0.7831
48.3928	9.0000	0.7500
48.4210	10.3750	0.8053
48.4493	9.3750	0.7655
48.4776	7.7500	0.6960
48.5058	9.1250	0.7552
48.5341	10.8125	0.8221
48.5624	8.4375	0.7262
48.5906	8.1250	0.7126
48.6189	9.3125	0.7629
48.6471	9.3125	0.7629
48.6754	9.3125	0.7629
48.7037	9.5000	0.7706
48.7319	9.1250	0.7552
48.7602	9.2500	0.7603
48.7885	10.1875	0.7979
48.8167	8.8750	0.7448
48.8450	10.1875	0.7979
48.8733	9.3125	0.7629
48.9015	10.6875	0.8173
48.9298	8.1250	0.7126
48.9581	10.5000	0.8101
48.9863	10.1875	0.7979
49.0146	10.5000	0.8101
49.0429	10.5000	0.8101
49.0711	8.6875	0.7369
49.0994	10.4375	0.8077
49.1277	8.8125	0.7421
49.1559	8.1250	0.7126
49.1842	11.3750	0.8432
49.2125	9.6875	0.7781
49.2407	8.1875	0.7153
49.2690	9.6250	0.7756
49.2973	7.9375	0.7043
49.3255	9.7500	0.7806
49.3538	9.0625	0.7526
49.3821	9.6250	0.7756
49.4103	9.0000	0.7500
49.4386	9.1250	0.7552
49.4668	10.1250	0.7955
49.4951	8.8750	0.7448
49.5234	9.1250	0.7552
49.5516	8.7500	0.7395
49.5799	9.0625	0.7526
49.6082	8.9375	0.7474
49.6364	9.1250	0.7552
49.6647	9.1875	0.7578
49.6930	9.5000	0.7706
49.7212	7.1250	0.6673
49.7495	8.6875	0.7369
49.7778	8.2500	0.7181
49.8060	8.7500	0.7395
49.8343	9.0625	0.7526
49.8626	9.1250	0.7552
49.8908	9.1875	0.7578
49.9191	8.8125	0.7421
49.9474	8.5625	0.7315
49.9756	8.3125	0.7208
50.0039	7.1250	0.6673
50.0322	8.3125	0.7208
50.0604	10.0000	0.7906
50.0887	9.5000	0.7706
50.1170	9.0625	0.7526
50.1452	9.3750	0.7655
50.1735	8.4375	0.7262
50.2018	8.5625	0.7315
50.2300	9.4375	0.7680
50.2583	8.8750	0.7448
50.2865	7.5000	0.6847
50.3148	7.9375	0.7043
50.3431	9.1875	0.7578
50.3713	9.7500	0.7806
50.3996	8.8125	0.7421
50.4279	9.8750	0.7856
50.4561	9.8750	0.7856
50.4844	10.3125	0.8028
50.5127	8.3125	0.7208
50.5409	8.1212	0.7016
50.5692	9.6364	0.7642
50.5975	10.4848	0.7971
50.6257	8.3030	0.7094
50.6540	8.3636	0.7120
50.6823	8.7879	0.7298
50.7105	8.0606	0.6989
50.7388	9.5758	0.7618
50.7671	10.4242	0.7948
50.7953	9.2727	0.7497
50.8236	9.5758	0.7618
50.8519	8.7273	0.7273
50.8801	7.5758	0.6776
50.9084	7.5758	0.6776
50.9367	10.2424	0.7879
50.9649	8.2424	0.7068
50.9932	8.4848	0.7171
51.0215	9.2727	0.7497
51.0497	8.3636	0.7120
51.0780	8.0000	0.6963
51.1063	8.0606	0.6989
51.1345	10.0000	0.7785
51.1628	7.5758	0.6776
51.1910	7.6364	0.6803
51.2193	8.7879	0.7298
51.2476	9.3333	0.7521
51.2758	8.6061	0.7222
51.3041	8.1212	0.7016
51.3324	7.9394	0.6937
51.3606	9.2121	0.7472
51.3889	9.8182	0.7714
51.4172	8.6061	0.7222
51.4454	8.7273	0.7273
51.4737	8.5294	0.7083
51.5020	8.9412	0.7252
51.5302	9.5882	0.7510
51.5585	8.5882	0.7108
51.5868	8.2941	0.6985
51.6150	7.9412	0.6835
51.6433	7.5882	0.6681
51.6716	8.2353	0.6960
51.6998	7.5294	0.6655
51.7281	9.7647	0.7579
51.7564	8.8235	0.7204
51.7846	9.1765	0.7347
51.8129	8.2941	0.6985
51.8412	9.4118	0.7441
51.8694	8.1765	0.6935
51.8977	8.7059	0.7156
51.9260	9.6471	0.7533
51.9542	7.4706	0.6629
51.9825	9.1765	0.7347
52.0107	9.1765	0.7347
52.0390	9.4118	0.7441
52.0673	8.5294	0.7083
52.0955	8.6471	0.7132
52.1238	8.2941	0.6985
52.1521	8.4706	0.7059
52.1803	9.5294	0.7487
52.2086	9.1176	0.7323
52.2369	7.0588	0.6444
52.2651	9.4118	0.7441
52.2934	8.6471	0.7132
52.3217	10.2353	0.7759
52.3499	6.1765	0.6028
52.3782	7.8235	0.6784
52.4065	7.4118	0.6603
52.4347	9.4706	0.7464
52.4630	8.1176	0.6910
52.4913	8.1176	0.6910
52.5195	8.4706	0.7059
52.5478	8.8824	0.7228
52.5761	9.9412	0.7647
52.6043	9.4706	0.7464
52.6326	8.0588	0.6885
52.6609	10.1176	0.7715
52.6891	8.8824	0.7228
52.7174	8.6471	0.7132
52.7457	10.0000	0.7670
52.7739	8.4118	0.7034
52.8022	10.2353	0.7759
52.8305	10.1176	0.7715
52.8587	9.0000	0.7276
52.8870	8.4118	0.7034
52.9152	9.0588	0.7300
52.9435	9.2353	0.7371
52.9718	8.2353	0.6960
53.0000	8.0000	0.6860
53.0283	8.7059	0.7156
53.0566	8.3529	0.7010
53.0848	8.8824	0.7228
53.1131	7.5294	0.6655
53.1414	10.0000	0.7670
53.1696	9.6471	0.7533
53.1979	8.6471	0.7132
53.2262	7.5882	0.6681
53.2544	9.7647	0.7579
53.2827	8.4706	0.7059
53.3110	7.8235	0.6784
53.3392	8.7647	0.7180
53.3675	8.1176	0.6910
53.3958	7.2353	0.6524
53.4240	8.2353	0.6960
53.4523	8.2941	0.6985
53.4806	8.6471	0.7132
53.5088	9.4118	0.7441
53.5371	8.3529	0.7010
53.5654	8.2941	0.6985
53.5936	8.8824	0.7228
53.6219	8.1765	0.6935
53.6502	7.9412	0.6835
53.6784	7.4706	0.6629
53.7067	7.8824	0.6809
53.7349	8.7059	0.7156
53.7632	7.7059	0.6733
53.7915	6.4118	0.6141
53.8197	8.5882	0.7108
53.8480	7.7647	0.6758
53.8763	7.7647	0.6758
53.9045	7.1176	0.6471
53.9328	7.0588	0.6444
53.9611	7.7647	0.6758
53.9893	8.0588	0.6885
54.0176	8.7059	0.7156
54.0459	8.7647	0.7180
54.0741	8.8824	0.7228
54.1024	8.3529	0.7010
54.1307	7.8235	0.6784
54.1589	8.8235	0.7204
54.1872	8.0000	0.6860
54.2155	7.3529	0.6577
54.2437	9.2353	0.7371
54.2720	8.4706	0.7059
54.3003	8.5294	0.7083
54.3285	8.5294	0.7083
54.3568	8.4706	0.7059
54.3851	8.5294	0.7083
54.4133	9.1765	0.7347
54.4416	7.6471	0.6707
54.4699	7.8235	0.6784
54.4981	7.3529	0.6577
54.5264	7.7714	0.6664
54.5546	8.2857	0.6881
54.5829	9.4286	0.7340
54.6112	9.2571	0.7273
54.6394	8.0000	0.6761
54.6677	9.5429	0.7384
54.6960	7.1429	0.6389
54.7242	8.2286	0.6857
54.7525	8.7429	0.7068
54.7808	8.8000	0.7091
54.8090	8.1143	0.6809
54.8373	8.4571	0.6952
54.8656	8.2286	0.6857
54.8938	6.4000	0.6047
54.9221	8.5143	0.6975
54.9504	8.3429	0.6905
54.9786	8.9143	0.7137
55.0069	8.2286	0.6857
55.0352	9.3714	0.7318
55.0634	9.4857	0.7362
55.0917	8.9143	0.7137
55.1200	8.5714	0.6999
55.1482	8.9714	0.7160
55.1765	10.0571	0.7581
55.2048	9.0857	0.7205
55.2330	9.0286	0.7183
55.2613	7.7714	0.6664
55.2896	7.4857	0.6540
55.3178	8.0571	0.6785
55.3461	8.4000	0.6928
55.3744	8.2286	0.6857
55.4026	8.9714	0.7160
55.4309	9.6571	0.7429
55.4591	7.6571	0.6615
55.4874	9.9429	0.7538
55.5157	8.2222	0.6759
55.5439	9.0556	0.7093
55.5722	8.1667	0.6736
55.6005	8.6111	0.6917
55.6287	9.8333	0.7391
55.6570	8.4444	0.6849
55.6853	10.7222	0.7718
55.7135	10.1111	0.7495
55.7418	8.3333	0.6804
55.7701	9.6111	0.7307
55.7983	8.6111	0.6917
55.8266	9.2778	0.7179
55.8549	9.4444	0.7244
55.8831	9.1667	0.7136
55.9114	9.3889	0.7222
55.9397	9.5000	0.7265
55.9679	9.8333	0.7391
55.9962	9.5556	0.7286
56.0245	8.3333	0.6804
56.0527	9.8889	0.7412
56.0810	10.0000	0.7454
56.1093	8.8889	0.7027
56.1375	12.6667	0.8389
56.1658	9.2222	0.7158
56.1941	9.1667	0.7136
56.2223	10.4444	0.7617
56.2506	10.4444	0.7617
56.2788	9.8333	0.7391
56.3071	10.7222	0.7718
56.3354	11.3333	0.7935
56.3636	10.7778	0.7738
56.3919	10.8333	0.7758
56.4202	11.8333	0.8108
56.4484	12.7778	0.8425
56.4767	11.6111	0.8032
56.5050	12.5556	0.8352
56.5332	13.6111	0.8696
56.5615	13.1111	0.8535
56.5898	13.7222	0.8731
56.6180	11.8889	0.8127
56.6463	13.7778	0.8749
56.6746	13.6667	0.8714
56.7028	15.3333	0.9230
56.7311	16.6667	0.9623
56.7594	17.8889	0.9969
56.7876	19.1667	1.0319
56.8159	20.2222	1.0599
56.8442	19.2222	1.0334
56.8724	20.3333	1.0628
56.9007	22.1111	1.1083
56.9290	22.1111	1.1083
56.9572	23.0556	1.1318
56.9855	24.3889	1.1640
57.0138	26.3889	1.2108
57.0420	28.7778	1.2644
57.0703	28.9444	1.2681
57.0986	31.8333	1.3299
57.1268	33.7778	1.3699
57.1551	37.9444	1.4519
57.1833	38.9444	1.4709
57.2116	35.4444	1.4033
57.2399	40.7778	1.5051
57.2681	44.1111	1.5654
57.2964	46.8333	1.6130
57.3247	45.8889	1.5967
57.3529	50.1111	1.6685
57.3812	52.0556	1.7006
57.4095	53.0000	1.7159
57.4377	51.1111	1.6851
57.4660	57.8333	1.7925
57.4943	57.6667	1.7899
57.5225	59.2778	1.8147
57.5508	58.8333	1.8079
57.5791	56.7222	1.7752
57.6073	55.7222	1.7595
57.6356	57.1111	1.7812
57.6639	50.2222	1.6704
57.6921	48.3889	1.6396
57.7204	44.5000	1.5723
57.7487	37.9444	1.4519
57.7769	38.2778	1.4583
57.8052	35.1667	1.3977
57.8335	29.2222	1.2741
57.8617	29.5000	1.2802
57.8900	25.2222	1.1837
57.9183	25.4444	1.1889
57.9465	21.7222	1.0985
57.9748	19.8889	1.0512
58.0030	17.9444	0.9985
58.0313	16.1667	0.9477
58.0596	16.0556	0.9444
58.0878	15.6667	0.9329
58.1161	14.8889	0.9095
58.1444	13.6111	0.8696
58.1726	13.8333	0.8767
58.2009	12.6667	0.8389
58.2292	12.8889	0.8462
58.2574	12.1667	0.8221
58.2857	11.6667	0.8051
58.3140	12.5556	0.8352
58.3422	11.2222	0.7896
58.3705	9.5556	0.7286
58.3988	9.7778	0.7370
58.4270	11.5556	0.8012
58.4553	10.0556	0.7474
58.4836	9.6216	0.7212
58.5118	9.6216	0.7212
58.5401	9.3514	0.7110
58.5684	9.8378	0.7292
58.5966	8.9189	0.6943
58.6249	9.3514	0.7110
58.6532	11.4054	0.7852
58.6814	9.4595	0.7151
58.7097	10.1622	0.7412
58.7380	8.3243	0.6708
58.7662	8.9730	0.6964
58.7945	8.5946	0.6816
58.8227	9.6216	0.7212
58.8510	8.4324	0.6751
58.8793	8.8108	0.6901
58.9075	8.5405	0.6794
58.9358	8.1081	0.6620
58.9641	8.1622	0.6642
58.9923	8.6486	0.6837
59.0206	9.1892	0.7048
59.0489	8.3243	0.6708
59.0771	8.2703	0.6686
59.1054	9.5135	0.7171
59.1337	7.5676	0.6396
59.1619	8.5946	0.6816
59.1902	9.0270	0.6985
59.2185	8.1622	0.6642
59.2467	8.3243	0.6708
59.2750	7.1892	0.6234
59.3033	6.8108	0.6068
59.3315	7.5135	0.6373
59.3598	9.0270	0.6985
59.3881	7.7838	0.6486
59.4163	7.6757	0.6441
59.4446	8.4865	0.6773
59.4729	7.2973	0.6281
59.5011	8.0541	0.6598
59.5294	8.7368	0.6781
59.5577	8.0526	0.6510
59.5859	8.4737	0.6678
59.6142	7.8947	0.6446
59.6425	7.9474	0.6467
59.6707	7.2632	0.6183
59.6990	7.4211	0.6250
59.7272	9.1053	0.6923
59.7555	9.1579	0.6943
59.7838	7.2632	0.6183
59.8120	7.8947	0.6446
59.8403	7.1579	0.6138
59.8686	7.5789	0.6316
59.8968	9.0526	0.6903
59.9251	8.8947	0.6842
59.9534	7.7895	0.6403
59.9816	7.5789	0.6316
60.0099	7.0526	0.6093
60.0382	8.6842	0.6761
60.0664	7.8947	0.6446
60.0947	7.8421	0.6425
60.1230	8.1053	0.6531
60.1512	7.5263	0.6294
60.1795	7.9474	0.6467
60.2078	7.6316	0.6338
60.2360	6.8947	0.6024
60.2643	7.4211	0.6250
60.2926	7.7895	0.6403
60.3208	6.6316	0.5908
60.3491	8.0000	0.6489
60.3774	7.3684	0.6227
60.4056	8.4211	0.6657
60.4339	7.7368	0.6381
60.4622	8.3684	0.6637
60.4904	7.5789	0.6316
60.5187	7.2105	0.6160
60.5469	8.2105	0.6574
60.5752	7.5263	0.6294
60.6035	7.1579	0.6138
60.6317	7.5789	0.6316
60.6600	7.9474	0.6467
60.6883	8.1579	0.6553
60.7165	7.3158	0.6205
60.7448	8.0000	0.6489
60.7731	7.1579	0.6138
60.8013	7.7895	0.6403
60.8296	6.6842	0.5931
60.8579	7.1053	0.6115
60.8861	7.1579	0.6138
60.9144	6.3684	0.5789
60.9427	7.1053	0.6115
60.9709	8.2105	0.6574
60.9992	8.2105	0.6574
61.0275	7.7895	0.6403
61.0557	7.1053	0.6115
61.0840	6.5789	0.5884
61.1123	7.4737	0.6272
61.1405	6.6316	0.5908
61.1688	7.3684	0.6227
61.1971	6.7368	0.5955
61.2253	7.1579	0.6138
61.2536	7.5789	0.6316
61.2819	7.6316	0.6338
61.3101	6.8947	0.6024
61.3384	6.4211	0.5813
61.3667	8.3684	0.6637
61.3949	6.3158	0.5766
61.4232	8.3158	0.6616
61.4514	7.3684	0.6227
61.4797	7.8421	0.6425
61.5080	8.2105	0.6574
61.5362	6.7368	0.5955
61.5645	6.4211	0.5813
61.5928	7.4211	0.6250
61.6210	6.5263	0.5861
61.6493	7.4737	0.6272
61.6776	7.5263	0.6294
61.7058	8.1053	0.6531
61.7341	7.7368	0.6381
61.7624	6.5263	0.5861
61.7906	7.3158	0.6205
61.8189	7.2632	0.6183
61.8472	6.7368	0.5955
61.8754	6.1579	0.5693
61.9037	7.0000	0.6070
61.9320	7.1579	0.6138
61.9602	8.2105	0.6574
61.9885	7.3684	0.6227
62.0168	6.6316	0.5908
62.0450	6.3158	0.5766
62.0733	7.1053	0.6115
62.1016	6.5789	0.5884
62.1298	7.3158	0.6205
62.1581	7.0000	0.6070
62.1864	6.8421	0.6001
62.2146	8.2105	0.6574
62.2429	7.6316	0.6338
62.2711	9.2632	0.6982
62.2994	10.5789	0.7462
62.3277	14.8947	0.8854
62.3559	12.4211	0.8085
62.3842	9.8421	0.7197
62.4125	9.0000	0.6882
62.4407	7.8947	0.6446
62.4690	9.4872	0.6975
62.4973	12.3590	0.7961
62.5255	9.0769	0.6823
62.5538	8.2051	0.6487
62.5821	7.1795	0.6068
62.6103	6.8718	0.5936
62.6386	7.0256	0.6002
62.6669	7.5897	0.6239
62.6951	8.2564	0.6507
62.7234	7.2821	0.6111
62.7517	8.0513	0.6426
62.7799	7.0256	0.6002
62.8082	6.6667	0.5847
62.8365	8.4103	0.6567
62.8647	7.9487	0.6385
62.8930	7.1795	0.6068
62.9213	6.8205	0.5914
62.9495	6.7692	0.5892
62.9778	6.0000	0.5547
63.0061	5.8462	0.5475
63.0343	7.4359	0.6175
63.0626	7.1795	0.6068
63.0908	7.0769	0.6024
63.1191	7.3333	0.6132
63.1474	7.2821	0.6111
63.1756	7.0256	0.6002
63.2039	7.2821	0.6111
63.2322	8.3590	0.6547
63.2604	7.2308	0.6089
63.2887	7.5385	0.6218
63.3170	7.3333	0.6132
63.3452	7.6923	0.6281
63.3735	7.2821	0.6111
63.4018	7.9487	0.6385
63.4300	8.1538	0.6466
63.4583	6.7692	0.5892
63.4866	6.2051	0.5641
63.5148	7.0256	0.6002
63.5431	8.0513	0.6426
63.5714	7.0500	0.5937
63.5996	7.3500	0.6062
63.6279	7.4146	0.6014
63.6562	7.4634	0.6034
63.6844	7.0732	0.5874
63.7127	7.2195	0.5934
63.7410	6.2439	0.5519
63.7692	7.8049	0.6170
63.7975	7.5610	0.6073
63.8258	7.0732	0.5874
63.8540	7.3171	0.5974
63.8823	7.6098	0.6093
63.9106	7.1707	0.5914
63.9388	6.8293	0.5772
63.9671	6.9268	0.5813
63.9953	7.4634	0.6034
64.0236	7.8049	0.6170
64.0519	6.6341	0.5689
64.0801	8.1951	0.6323
64.1084	6.7317	0.5730
64.1367	7.6098	0.6093
64.1649	7.1220	0.5894
64.1932	7.3171	0.5974
64.2215	6.0000	0.5410
64.2497	7.6585	0.6112
64.2780	7.8537	0.6190
64.3063	7.0244	0.5854
64.3345	6.2927	0.5540
64.3628	6.8780	0.5792
64.3911	6.6829	0.5710
64.4193	7.3659	0.5994
64.4476	7.8537	0.6190
64.4759	7.0244	0.5854
64.5041	6.2927	0.5540
64.5324	7.7561	0.6151
64.5607	6.7317	0.5730
64.5889	8.0976	0.6285
64.6172	7.9024	0.6209
64.6455	6.9268	0.5813
64.6737	6.3415	0.5562
64.7020	7.5122	0.6053
64.7303	6.8780	0.5792
64.7585	7.2683	0.5954
64.7868	8.0952	0.6209
64.8150	6.7907	0.5620
64.8433	6.0465	0.5303
64.8716	7.7674	0.6011
64.8998	7.0233	0.5715
64.9281	7.3488	0.5846
64.9564	7.3023	0.5828
64.9846	7.2558	0.5809
65.0129	6.9767	0.5696
65.0412	6.6512	0.5562
65.0694	6.0465	0.5303
65.0977	7.1163	0.5753
65.1260	6.5116	0.5503
65.1542	7.2558	0.5809
65.1825	6.0000	0.5283
65.2108	6.8372	0.5639
65.2390	7.4884	0.5902
65.2673	6.7907	0.5620
65.2956	7.3953	0.5865
65.3238	7.1163	0.5753
65.3521	5.6279	0.5116
65.3804	7.3953	0.5865
65.4086	7.6744	0.5975
65.4369	6.5581	0.5523
65.4652	6.7907	0.5620
65.4934	7.0233	0.5715
65.5217	6.8372	0.5639
65.5500	6.3256	0.5424
65.5782	7.2093	0.5791
65.6065	6.9302	0.5677
65.6348	7.5814	0.5938
65.6630	6.8837	0.5658
65.6913	6.9302	0.5677
65.7195	7.1628	0.5772
65.7478	7.3488	0.5846
65.7761	7.6744	0.5975
65.8043	7.2558	0.5809
65.8326	6.9302	0.5677
65.8609	7.0698	0.5734
65.8891	7.8140	0.6029
65.9174	6.7907	0.5620
65.9457	7.6744	0.5975
65.9739	6.3182	0.5359
66.0022	7.4091	0.5803
66.0305	6.8444	0.5515
66.0587	6.4889	0.5370
66.0870	7.1556	0.5639
66.1153	7.5556	0.5795
66.1435	6.7111	0.5461
66.1718	5.8667	0.5106
66.2001	6.9333	0.5551
66.2283	6.8889	0.5533
66.2566	6.9333	0.5551
66.2849	7.2889	0.5692
66.3131	6.5333	0.5389
66.3414	6.6667	0.5443
66.3697	6.3111	0.5296
66.3979	6.6667	0.5443
66.4262	7.0667	0.5604
66.4545	6.4000	0.5333
66.4827	7.0222	0.5587
66.5110	6.2222	0.5259
66.5392	6.9333	0.5551
66.5675	7.4222	0.5743
66.5958	7.6000	0.5812
66.6240	6.1778	0.5240
66.6523	7.8667	0.5913
66.6806	6.3556	0.5315
66.7088	6.5333	0.5389
66.7371	6.7111	0.5461
66.7654	6.3111	0.5296
66.7936	6.7556	0.5479
66.8219	6.0889	0.5202
66.8502	7.2000	0.5657
66.8784	6.0000	0.5164
66.9067	6.7556	0.5479
66.9350	6.3111	0.5296
66.9632	6.5333	0.5389
66.9915	6.9333	0.5551
67.0198	7.4222	0.5743
67.0480	6.5778	0.5407
67.0763	7.4222	0.5743
67.1046	6.7111	0.5461
67.1328	7.1556	0.5639
67.1611	6.3478	0.5253
67.1894	7.0000	0.5517
67.2176	7.6087	0.5752
67.2459	8.0851	0.5866
67.2742	7.2766	0.5565
67.3024	7.0213	0.5466
67.3307	6.0000	0.5053
67.3589	6.9787	0.5449
67.3872	7.4043	0.5613
67.4155	7.2766	0.5565
67.4437	6.3830	0.5212
67.4720	6.0000	0.5053
67.5003	6.3830	0.5212
67.5285	7.4894	0.5645
67.5568	7.7872	0.5756
67.5851	6.8936	0.5416
67.6133	6.6809	0.5332
67.6416	7.0638	0.5483
67.6699	6.2553	0.5159
67.6981	6.5106	0.5264
67.7264	6.5957	0.5298
67.7547	7.1915	0.5532
67.7829	6.8511	0.5399
67.8112	6.1277	0.5106
67.8395	6.5532	0.5281
67.8677	5.9149	0.5017
67.8960	6.8511	0.5399
67.9243	6.2128	0.5142
67.9525	6.7660	0.5366
67.9808	6.5532	0.5281
68.0091	6.1277	0.5106
68.0373	7.3191	0.5581
68.0656	6.5532	0.5281
68.0939	7.3191	0.5581
68.1221	7.9149	0.5803
68.1504	8.0851	0.5866
68.1787	6.3830	0.5212
68.2069	5.1915	0.4700
68.2352	6.3404	0.5194
68.2634	6.5532	0.5281
68.2917	7.1489	0.5516
68.3200	6.7083	0.5287
68.3482	7.7083	0.5667
68.3765	7.2500	0.5496
68.4048	6.7917	0.5320
68.4330	7.2917	0.5512
68.4613	7.0833	0.5433
68.4896	7.3878	0.5491
68.5178	6.2857	0.5065
68.5461	7.4286	0.5506
68.5744	6.6531	0.5211
68.6026	6.8980	0.5306
68.6309	6.4490	0.5131
68.6592	5.3878	0.4689
68.6874	6.5306	0.5163
68.7157	6.6122	0.5195
68.7440	6.2857	0.5065
68.7722	6.2449	0.5049
68.8005	6.4082	0.5114
68.8288	6.8163	0.5275
68.8570	6.9388	0.5322
68.8853	7.3469	0.5476
68.9136	7.1837	0.5415
68.9418	7.2245	0.5430
68.9701	7.2653	0.5446
68.9984	7.7551	0.5626
69.0266	6.6939	0.5227
69.0549	7.1429	0.5399
69.0831	7.3878	0.5491
69.1114	8.2449	0.5801
69.1397	5.9592	0.4932
69.1679	7.6735	0.5596
69.1962	7.0612	0.5369
69.2245	7.4286	0.5506
69.2527	8.1633	0.5772
69.2810	7.8367	0.5656
69.3093	7.3878	0.5491
69.3375	7.4286	0.5506
69.3658	8.3673	0.5844
69.3941	7.0612	0.5369
69.4223	7.7143	0.5611
69.4506	6.8163	0.5275
69.4789	6.9388	0.5322
69.5071	7.5200	0.5485
69.5354	7.0400	0.5307
69.5637	8.4800	0.5824
69.5919	7.5200	0.5485
69.6202	7.4400	0.5455
69.6485	8.4000	0.5797
69.6767	8.7600	0.5919
69.7050	8.1176	0.5642
69.7333	6.5882	0.5083
69.7615	7.2157	0.5319
69.7898	7.9216	0.5574
69.8181	8.1569	0.5656
69.8463	7.9216	0.5574
69.8746	8.5882	0.5803
69.9028	7.4510	0.5406
69.9311	8.4314	0.5750
69.9594	8.2353	0.5683
69.9876	7.8431	0.5546
70.0159	8.5098	0.5777
70.0442	8.6667	0.5830
70.0724	8.6275	0.5817
70.1007	8.7059	0.5843
70.1290	8.7451	0.5856
70.1572	8.6667	0.5830
70.1855	8.7451	0.5856
70.2138	8.2353	0.5683
70.2420	9.1373	0.5986
70.2703	9.6078	0.6138
70.2986	8.6667	0.5830
70.3268	8.8627	0.5895
70.3551	9.1373	0.5986
70.3834	8.9020	0.5908
70.4116	8.7059	0.5843
70.4399	10.2353	0.6335
70.4682	9.0588	0.5960
70.4964	9.6471	0.6151
70.5247	9.7255	0.6176
70.5530	8.9020	0.5908
70.5812	9.7255	0.6176
70.6095	9.6078	0.6138
70.6378	9.8039	0.6201
70.6660	10.4231	0.6332
70.6943	10.0769	0.6226
70.7226	9.6923	0.6106
70.7508	9.9231	0.6178
70.7791	10.3846	0.6320
70.8073	9.1154	0.5921
70.8356	10.5385	0.6367
70.8639	11.0769	0.6527
70.8921	10.5769	0.6378
70.9204	11.7308	0.6717
70.9487	11.4717	0.6579
70.9769	11.1321	0.6481
71.0052	12.0000	0.6729
71.0335	12.7170	0.6927
71.0617	14.0377	0.7278
71.0900	13.7736	0.7209
71.1183	14.9434	0.7509
71.1465	14.6792	0.7443
71.1748	14.0755	0.7288
71.2031	15.0566	0.7538
71.2313	15.6981	0.7697
71.2596	15.9245	0.7752
71.2879	16.9811	0.8005
71.3161	18.3774	0.8328
71.3444	17.3208	0.8085
71.3727	20.5283	0.8801
71.4009	19.3208	0.8539
71.4292	20.8302	0.8866
71.4575	22.9434	0.9305
71.4857	22.5283	0.9220
71.5140	24.7925	0.9672
71.5423	25.6604	0.9840
71.5705	26.4151	0.9984
71.5988	29.1321	1.0485
71.6270	31.8113	1.0956
71.6553	32.4906	1.1073
71.6836	33.9623	1.1321
71.7118	34.5283	1.1415
71.7401	35.1321	1.1514
71.7684	40.4151	1.2349
71.7966	40.9434	1.2430
71.8249	43.0370	1.2625
71.8532	47.3333	1.3240
71.8814	47.2593	1.3230
71.9097	51.2222	1.3774
71.9380	52.7407	1.3976
71.9662	52.2593	1.3912
71.9945	53.6296	1.4094
72.0228	58.5185	1.4722
72.0510	58.5556	1.4727
72.0793	62.5556	1.5221
72.1076	65.1111	1.5529
72.1358	66.8519	1.5735
72.1641	68.2545	1.5754
72.1924	66.2545	1.5522
72.2206	67.6000	1.5679
72.2489	66.5455	1.5556
72.2772	70.0727	1.5963
72.3054	68.8727	1.5825
72.3337	66.4727	1.5547
72.3620	64.8000	1.5350
72.3902	62.7273	1.5103
72.4185	58.6182	1.4600
72.4468	56.5091	1.4335
72.4750	57.2364	1.4427
72.5033	53.5273	1.3952
72.5315	46.1818	1.2959
72.5598	44.9091	1.2779
72.5881	43.1273	1.2523
72.6163	36.7636	1.1562
72.6446	35.4182	1.1349
72.6729	32.1455	1.0812
72.7011	29.5636	1.0368
72.7294	28.6909	1.0214
72.7577	26.1818	0.9757
72.7859	22.4727	0.9040
72.8142	21.6727	0.8877
72.8425	21.2000	0.8780
72.8707	18.0727	0.8107
72.8990	17.7091	0.8025
72.9273	16.3636	0.7714
72.9555	15.2000	0.7435
72.9838	13.6364	0.7042
73.0121	13.8214	0.7026
73.0403	12.8929	0.6786
73.0686	13.3214	0.6898
73.0969	13.2500	0.6879
73.1251	12.9286	0.6795
73.1534	12.0714	0.6566
73.1817	11.9643	0.6537
73.2099	10.1429	0.6019
73.2382	12.3571	0.6643
73.2665	10.7143	0.6186
73.2947	10.3571	0.6082
73.3230	9.8929	0.5944
73.3512	10.1429	0.6019
73.3795	8.6316	0.5503
73.4078	9.4737	0.5766
73.4360	9.6842	0.5829
73.4643	8.4211	0.5436
73.4926	8.7368	0.5537
73.5208	9.6842	0.5829
73.5491	8.5965	0.5492
73.5774	8.5614	0.5481
73.6056	8.4912	0.5458
73.6339	8.6667	0.5514
73.6622	7.7895	0.5228
73.6904	7.8947	0.5263
73.7187	7.7544	0.5216
73.7470	7.2982	0.5060
73.7752	8.8070	0.5559
73.8035	7.4035	0.5097
73.8318	7.4386	0.5109
73.8600	7.5789	0.5157
73.8883	8.0351	0.5310
73.9166	7.9649	0.5286
73.9448	8.2456	0.5379
73.9731	7.7544	0.5216
74.0014	7.0526	0.4975
74.0296	7.5439	0.5145
74.0579	7.7895	0.5228
74.0862	8.8772	0.5581
74.1144	7.1930	0.5024
74.1427	7.5789	0.5157
74.1709	7.4138	0.5056
74.1992	7.6897	0.5149
74.2275	7.2759	0.5009
74.2557	7.4483	0.5068
74.2840	7.7931	0.5184
74.3123	7.5517	0.5103
74.3405	6.5517	0.4753
74.3688	7.6897	0.5149
74.3971	7.5172	0.5091
74.4253	7.6897	0.5149
74.4536	6.9655	0.4901
74.4819	7.7241	0.5161
74.5101	6.9655	0.4901
74.5384	7.0345	0.4925
74.5667	7.5862	0.5115
74.5949	6.9310	0.4889
74.6232	6.6780	0.4758
74.6515	7.4237	0.5016
74.6797	8.6102	0.5403
74.7080	6.9492	0.4853
74.7363	7.8983	0.5174
74.7645	8.4068	0.5338
74.7928	7.1186	0.4912
74.8211	6.2373	0.4598
74.8493	7.4576	0.5028
74.8776	7.1864	0.4936
74.9059	7.3898	0.5005
74.9341	6.8136	0.4806
74.9624	6.9492	0.4853
74.9907	7.5254	0.5051
75.0189	7.1864	0.4936
75.0472	6.5424	0.4709
75.0754	6.4746	0.4685
75.1037	6.7458	0.4782
75.1320	7.8305	0.5152
75.1602	6.5424	0.4709
75.1885	6.9831	0.4865
75.2168	7.4576	0.5028
75.2450	6.6441	0.4746
75.2733	7.2203	0.4947
75.3016	6.8814	0.4830
75.3298	7.1525	0.4924
75.3581	7.3667	0.4955
75.3864	6.5000	0.4655
75.4146	6.3000	0.4583
75.4429	6.0000	0.4472
75.4712	6.3333	0.4595
75.4994	7.4333	0.4978
75.5277	7.0333	0.4842
75.5560	6.6000	0.4690
75.5842	6.9000	0.4796
75.6125	6.4333	0.4631
75.6408	6.2667	0.4570
75.6690	6.7333	0.4738
75.6973	6.6667	0.4714
75.7256	6.1667	0.4534
75.7538	7.3667	0.4955
75.7821	6.0000	0.4472
75.8104	5.8333	0.4410
75.8386	6.7541	0.4706
75.8669	6.5902	0.4648
75.8951	6.6557	0.4671
75.9234	5.4426	0.4224
75.9517	6.5574	0.4637
75.9799	6.6557	0.4671
76.0082	6.6557	0.4671
76.0365	6.2623	0.4531
76.0647	7.3443	0.4907
76.0930	6.7541	0.4706
76.1213	6.5574	0.4637
76.1495	6.6230	0.4660
76.1778	6.2951	0.4543
76.2061	6.6885	0.4683
76.2343	6.0656	0.4459
76.2626	6.5902	0.4648
76.2909	7.4426	0.4940
76.3191	6.0328	0.4447
76.3474	6.3279	0.4555
76.3757	6.7541	0.4706
76.4039	6.2951	0.4543
76.4322	6.2951	0.4543
76.4605	7.1475	0.4841
76.4887	6.6557	0.4671
76.5170	6.9355	0.4730
76.5453	7.1613	0.4806
76.5735	6.6452	0.4630
76.6018	6.0645	0.4423
76.6301	6.9677	0.4741
76.6583	6.6774	0.4641
76.6866	6.4839	0.4573
76.7149	6.0000	0.4399
76.7431	6.5806	0.4607
76.7714	6.1613	0.4458
76.7996	6.0968	0.4435
76.8279	6.1290	0.4446
76.8562	7.0645	0.4774
76.8844	6.2258	0.4481
76.9127	6.7419	0.4663
76.9410	6.1290	0.4446
76.9692	7.4516	0.4903
76.9975	6.0645	0.4423
77.0258	6.7097	0.4652
77.0540	6.8387	0.4697
77.0823	6.1587	0.4422
77.1106	5.8095	0.4295
77.1388	6.1270	0.4410
77.1671	5.6508	0.4235
77.1954	6.5397	0.4556
77.2236	5.6190	0.4224
77.2519	6.9206	0.4687
77.2802	7.4921	0.4877
77.3084	6.1905	0.4433
77.3367	6.6984	0.4611
77.3650	7.1111	0.4751
77.3932	7.1746	0.4772
77.4215	6.3492	0.4490
77.4498	5.9048	0.4330
77.4780	7.0159	0.4719
77.5063	6.6032	0.4578
77.5346	6.7302	0.4622
77.5628	5.7778	0.4283
77.5911	6.2540	0.4456
77.6193	6.1587	0.4422
77.6476	5.8095	0.4295
77.6759	5.7143	0.4259
77.7041	6.5625	0.4529
77.7324	7.2813	0.4770
77.7607	6.3125	0.4441
77.7889	6.8125	0.4614
77.8172	5.8125	0.4262
77.8455	6.0625	0.4353
77.8737	7.0625	0.4698
77.9020	6.3438	0.4452
77.9303	6.3125	0.4441
77.9585	6.0625	0.4353
77.9868	6.4375	0.4485
78.0151	6.6250	0.4550
78.0433	5.7813	0.4250
78.0716	6.2500	0.4419
78.0999	6.4375	0.4485
78.1281	6.2813	0.4430
78.1564	5.7813	0.4250
78.1847	6.8750	0.4635
78.2129	6.8438	0.4625
78.2412	6.8438	0.4625
78.2695	6.0313	0.4341
78.2977	6.8000	0.4574
78.3260	6.9846	0.4636
78.3543	6.5231	0.4480
78.3825	5.8462	0.4241
78.4108	6.7692	0.4564
78.4390	7.0769	0.4666
78.4673	6.1231	0.4341
78.4956	6.4308	0.4448
78.5238	6.1846	0.4362
78.5521	7.1385	0.4687
78.5804	7.1692	0.4697
78.6086	6.9231	0.4615
78.6369	6.4923	0.4469
78.6652	6.8615	0.4595
78.6934	6.4000	0.4438
78.7217	7.2923	0.4737
78.7500	6.7385	0.4553
78.7782	6.1538	0.4351
78.8065	6.3385	0.4416
78.8348	6.6769	0.4533
78.8630	7.7879	0.4858
78.8913	6.9394	0.4586
78.9196	6.3030	0.4370
78.9478	6.6970	0.4505
78.9761	6.8485	0.4556
79.0044	6.3333	0.4381
79.0326	7.2727	0.4695
79.0609	6.6364	0.4484
79.0892	6.3636	0.4391
79.1174	6.6970	0.4505
79.1457	5.7879	0.4188
79.1740	6.6970	0.4505
79.2022	5.5152	0.4088
79.2305	7.0606	0.4626
79.2588	6.1818	0.4328
79.2870	6.4242	0.4412
79.3153	6.8182	0.4545
79.3435	5.6970	0.4155
79.3718	6.6970	0.4505
79.4001	6.3939	0.4402
79.4283	6.1515	0.4318
79.4566	6.6364	0.4484
79.4849	5.9697	0.4253
79.5131	6.6364	0.4484
79.5414	6.3881	0.4367
79.5697	5.9701	0.4222
79.5979	5.8209	0.4168
79.6262	6.9851	0.4566
79.6545	6.1791	0.4295
79.6827	6.5075	0.4407
79.7110	5.6716	0.4115
79.7393	6.3881	0.4367
79.7675	6.8060	0.4507
79.7958	6.3284	0.4346
79.8241	6.6866	0.4468
79.8523	6.3582	0.4357
79.8806	5.5821	0.4082
79.9089	6.3582	0.4357
79.9371	6.0597	0.4253
79.9654	6.5672	0.4428
79.9937	6.0597	0.4253
80.0219	6.6567	0.4458
80.0502	6.2059	0.4272
80.0785	6.5882	0.4402
80.1067	6.1471	0.4252
80.1350	5.9118	0.4170
80.1632	5.6471	0.4075
80.1915	7.0000	0.4537
80.2198	7.1176	0.4575
80.2480	6.1176	0.4242
80.2763	6.4118	0.4343
80.3046	6.1176	0.4242
80.3328	6.2353	0.4282
80.3611	6.3824	0.4333
80.3894	6.6471	0.4422
80.4176	5.5000	0.4022
80.4459	6.4118	0.4343
80.4742	6.3529	0.4323
80.5024	5.9412	0.4180
80.5307	6.2353	0.4282
80.5590	5.7059	0.4097
80.5872	6.2059	0.4272
80.6155	6.2353	0.4282
80.6438	6.5294	0.4382
80.6720	6.6765	0.4431
80.7003	6.3824	0.4333
80.7286	6.7647	0.4461
80.7568	6.6667	0.4396
80.7851	6.5797	0.4367
80.8134	6.2319	0.4250
80.8416	5.9130	0.4140
80.8699	6.2899	0.4270
80.8982	7.0725	0.4528
80.9264	7.1594	0.4555
80.9547	7.0435	0.4518
80.9830	5.4493	0.3974
81.0112	6.6957	0.4405
81.0395	5.7391	0.4079
81.0677	6.2319	0.4250
81.0960	6.8696	0.4462
81.1243	6.3188	0.4280
81.1525	6.3478	0.4289
81.1808	6.0000	0.4170
81.2091	5.8571	0.4091
81.2373	6.2571	0.4228
81.2656	6.2857	0.4238
81.2939	5.6286	0.4010
81.3221	6.4286	0.4286
81.3504	6.7143	0.4380
81.3787	6.1429	0.4189
81.4069	6.6857	0.4371
81.4352	6.6286	0.4352
81.4635	6.4857	0.4305
81.4917	6.5143	0.4314
81.5200	6.4286	0.4286
81.5483	6.2571	0.4228
81.5765	6.2286	0.4219
81.6048	6.2571	0.4228
81.6331	6.0857	0.4170
81.6613	5.6286	0.4010
81.6896	6.0571	0.4160
81.7179	6.7429	0.4389
81.7461	6.6000	0.4342
81.7744	6.9714	0.4463
81.8027	7.6000	0.4660
81.8309	6.4571	0.4295
81.8592	6.9143	0.4445
81.8874	6.0857	0.4170
81.9157	6.6000	0.4342
81.9440	7.1429	0.4518
81.9722	7.1714	0.4527
82.0005	6.3662	0.4235
82.0288	6.2535	0.4197
82.0570	6.9296	0.4418
82.0853	6.0563	0.4130
82.1136	7.0141	0.4445
82.1418	6.5352	0.4291
82.1701	7.0423	0.4454
82.1984	6.6479	0.4327
82.2266	6.7887	0.4373
82.2549	7.0423	0.4454
82.2832	6.4789	0.4272
82.3114	5.8310	0.4053
82.3397	6.9577	0.4427
82.3680	7.5493	0.4611
82.3962	6.0278	0.4092
82.4245	7.1667	0.4462
82.4528	6.3611	0.4204
82.4810	6.8611	0.4366
82.5093	6.5833	0.4276
82.5376	7.4444	0.4547
82.5658	7.3056	0.4505
82.5941	6.9722	0.4401
82.6224	6.5000	0.4249
82.6506	6.6667	0.4303
82.6789	7.1667	0.4462
82.7071	6.4167	0.4222
82.7354	7.3611	0.4522
82.7637	7.0833	0.4436
82.7919	6.5000	0.4249
82.8202	6.5278	0.4258
82.8485	6.6667	0.4303
82.8767	7.1389	0.4453
82.9050	6.2778	0.4176
82.9333	7.0556	0.4427
82.9615	6.3889	0.4213
82.9898	7.9722	0.4706
83.0181	6.7222	0.4321
83.0463	6.8611	0.4366
83.0746	6.6389	0.4294
83.1029	7.2778	0.4496
83.1311	7.3333	0.4513
83.1594	7.5000	0.4564
83.1877	7.3611	0.4522
83.2159	6.4110	0.4191
83.2442	7.1781	0.4435
83.2725	6.8219	0.4323
83.3007	7.2877	0.4468
83.3290	7.2055	0.4443
83.3573	7.7260	0.4601
83.3855	7.0959	0.4409
83.4138	7.0685	0.4401
83.4421	7.4795	0.4527
83.4703	6.9041	0.4349
83.4986	6.5753	0.4244
83.5269	7.1781	0.4435
83.5551	7.6216	0.4539
83.5834	7.6757	0.4555
83.6116	8.1081	0.4681
83.6399	6.7027	0.4256
83.6682	7.0000	0.4350
83.6964	7.2162	0.4416
83.7247	6.8378	0.4299
83.7530	7.0270	0.4358
83.7812	7.6486	0.4547
83.8095	7.5676	0.4522
83.8378	7.8919	0.4618
83.8660	6.8919	0.4316
83.8943	7.5676	0.4522
83.9226	7.7838	0.4587
83.9508	7.9459	0.4634
83.9791	7.8378	0.4603
84.0074	7.9730	0.4642
84.0356	8.4865	0.4789
84.0639	7.6757	0.4555
84.0922	7.7838	0.4587
84.1204	7.7027	0.4563
84.1487	8.1081	0.4681
84.1770	7.7568	0.4579
84.2052	7.9459	0.4634
84.2335	8.0541	0.4666
84.2618	7.8649	0.4610
84.2900	8.4595	0.4782
84.3183	9.1081	0.4962
84.3466	8.5405	0.4804
84.3748	8.7568	0.4865
84.4031	9.0270	0.4939
84.4313	8.5676	0.4812
84.4596	9.4933	0.5031
84.4879	9.3600	0.4996
84.5161	9.2000	0.4953
84.5444	8.4000	0.4733
84.5727	10.0000	0.5164
84.6009	9.2267	0.4960
84.6292	9.8400	0.5122
84.6575	9.7333	0.5095
84.6857	10.3733	0.5259
84.7140	10.2895	0.5204
84.7423	10.7632	0.5322
84.7705	11.6053	0.5526
84.7988	10.8158	0.5335
84.8271	11.4737	0.5495
84.8553	11.8684	0.5589
84.8836	11.9737	0.5613
84.9119	12.2105	0.5669
84.9401	13.0526	0.5861
84.9684	13.3421	0.5925
84.9967	12.5526	0.5747
85.0249	14.0263	0.6075
85.0532	14.1842	0.6110
85.0815	14.3158	0.6138
85.1097	13.1579	0.5884
85.1380	15.7105	0.6430
85.1663	14.2632	0.6127
85.1945	15.4737	0.6381
85.2228	16.1579	0.6521
85.2511	16.3684	0.6563
85.2793	17.7368	0.6832
85.3076	16.1579	0.6521
85.3358	18.4474	0.6967
85.3641	19.8684	0.7231
85.3924	19.2105	0.7110
85.4206	20.3421	0.7317
85.4489	20.2632	0.7302
85.4772	21.3158	0.7490
85.5054	22.6579	0.7722
85.5337	22.1842	0.7641
85.5620	22.8684	0.7758
85.5902	22.3158	0.7663
85.6185	22.7632	0.7740
85.6468	24.7105	0.8064
85.6750	24.0519	0.7904
85.7033	23.7662	0.7857
85.7316	25.5325	0.8144
85.7598	26.2078	0.8251
85.7881	26.7792	0.8340
85.8164	24.4156	0.7963
85.8446	26.8831	0.8356
85.8729	26.1299	0.8238
85.9012	25.5385	0.8092
85.9294	25.0000	0.8006
85.9577	24.1282	0.7866
85.9860	24.1538	0.7870
86.0142	23.5897	0.7777
86.0425	25.3077	0.8056
86.0708	23.5641	0.7773
86.0990	21.3590	0.7400
86.1273	21.7436	0.7467
86.1555	19.5128	0.7073
86.1838	19.7179	0.7110
86.2121	18.2564	0.6842
86.2403	16.4615	0.6497
86.2686	17.1026	0.6622
86.2969	16.4615	0.6497
86.3251	15.2821	0.6260
86.3534	14.7179	0.6143
86.3817	14.6410	0.6127
86.4099	13.7179	0.5931
86.4382	12.4359	0.5647
86.4665	12.7179	0.5711
86.4947	11.5385	0.5439
86.5230	11.2821	0.5379
86.5513	9.8974	0.5038
86.5795	10.7179	0.5242
86.6078	9.5897	0.4959
86.6361	11.1026	0.5336
86.6643	10.4359	0.5173
86.6926	10.5128	0.5192
86.7209	10.4103	0.5167
86.7491	9.2051	0.4858
86.7774	8.6667	0.4714
86.8057	9.2564	0.4872
86.8339	8.9231	0.4783
86.8622	9.8462	0.5025
86.8905	8.8354	0.4730
86.9187	9.1392	0.4810
86.9470	9.5949	0.4929
86.9752	8.8861	0.4743
87.0035	8.5063	0.4641
87.0318	8.6835	0.4689
87.0600	9.0750	0.4763
87.0883	8.3500	0.4569
87.1166	9.1750	0.4789
87.1448	8.5250	0.4617
87.1731	9.2250	0.4802
87.2014	8.4000	0.4583
87.2296	10.4000	0.5099
87.2579	8.7000	0.4664
87.2862	8.8500	0.4704
87.3144	8.1750	0.4521
87.3427	9.3750	0.4841
87.3710	8.2250	0.4535
87.3992	8.4500	0.4596
87.4275	9.4500	0.4861
87.4558	9.2250	0.4802
87.4840	8.3750	0.4576
87.5123	8.5250	0.4617
87.5406	8.9500	0.4730
87.5688	9.6250	0.4905
87.5971	7.8750	0.4437
87.6254	8.8250	0.4697
87.6536	8.4500	0.4596
87.6819	8.7500	0.4677
87.7102	8.0750	0.4493
87.7384	9.4250	0.4854
87.7667	8.6500	0.4650
87.7950	8.7250	0.4670
87.8232	9.1750	0.4789
87.8515	9.2750	0.4815
87.8797	8.4250	0.4589
87.9080	8.3000	0.4555
87.9363	8.8500	0.4704
87.9645	8.3500	0.4569
87.9928	8.5000	0.4610
88.0211	8.1000	0.4500
88.0493	7.9000	0.4444
88.0776	8.3000	0.4555
88.1059	8.5750	0.4630
88.1341	8.7407	0.4646
88.1624	8.0741	0.4465
88.1907	9.0864	0.4737
88.2189	8.5679	0.4599
88.2472	8.8780	0.4653
88.2755	8.6829	0.4602
88.3037	8.5122	0.4556
88.3320	8.7317	0.4615
88.3603	9.0732	0.4704
88.3885	9.7805	0.4884
88.4168	9.1951	0.4736
88.4451	9.1463	0.4723
88.4733	8.1951	0.4471
88.5016	9.7073	0.4866
88.5299	9.0244	0.4692
88.5581	8.3659	0.4517
88.5864	8.3659	0.4517
88.6147	8.9268	0.4666
88.6429	8.8293	0.4641
88.6712	9.6829	0.4860
88.6994	8.3415	0.4511
88.7277	8.3902	0.4524
88.7560	9.6341	0.4847
88.7842	9.5122	0.4817
88.8125	9.6341	0.4847
88.8408	9.5610	0.4829
88.8690	9.6341	0.4847
88.8973	8.5610	0.4570
88.9256	8.5122	0.4556
88.9538	8.7073	0.4608
88.9821	8.8780	0.4653
89.0104	8.3415	0.4511
89.0386	9.3415	0.4773
89.0669	9.6098	0.4841
89.0952	8.8293	0.4641
89.1234	8.7317	0.4615
89.1517	8.4146	0.4530
89.1800	8.1951	0.4471
89.2082	9.4878	0.4811
89.2365	9.2195	0.4742
89.2648	10.1707	0.4981
89.2930	9.6585	0.4854
89.3213	8.5610	0.4570
89.3496	8.8434	0.4616
89.3778	8.9880	0.4654
89.4061	9.0238	0.4635
89.4344	8.9048	0.4605
89.4626	9.2143	0.4684
89.4909	9.6429	0.4792
89.5192	10.6905	0.5045
89.5474	9.0714	0.4647
89.5757	9.4762	0.4750
89.6039	8.5952	0.4524
89.6322	8.9762	0.4623
89.6605	9.8095	0.4833
89.6887	9.1429	0.4666
89.7170	9.4286	0.4738
89.7453	9.7857	0.4827
89.7735	9.8333	0.4839
89.8018	9.1905	0.4678
89.8301	9.5952	0.4780
89.8583	9.5952	0.4780
89.8866	9.1667	0.4672
89.9149	9.2857	0.4702
89.9431	10.0952	0.4903
89.9714	9.5476	0.4768
89.9997	10.9286	0.5101
90.0279	10.4286	0.4983
90.0562	9.3333	0.4714
90.0845	9.7143	0.4809
90.1127	10.0476	0.4891
90.1410	9.5714	0.4774
90.1693	8.9048	0.4605
90.1975	9.4286	0.4738
90.2258	9.7381	0.4815
90.2541	10.5952	0.5023
90.2823	10.1190	0.4908
90.3106	8.7857	0.4574
90.3389	9.8571	0.4845
90.3671	8.8571	0.4592
90.3954	9.5714	0.4774
90.4236	9.9762	0.4874
90.4519	9.5952	0.4780
90.4802	10.0952	0.4903
90.5084	10.1905	0.4926
90.5367	10.5238	0.5006
90.5650	9.2143	0.4684
90.5932	9.5116	0.4703
90.6215	10.1628	0.4862
90.6498	10.3488	0.4906
90.6780	10.8140	0.5015
90.7063	9.4884	0.4697
90.7346	11.2791	0.5122
90.7628	10.0465	0.4834
90.7911	10.5581	0.4955
90.8194	10.1628	0.4862
90.8476	11.0000	0.5058
90.8759	10.5349	0.4950
90.9042	10.7674	0.5004
90.9324	10.2326	0.4878
90.9607	10.6744	0.4982
90.9890	9.9767	0.4817
91.0172	10.2791	0.4889
91.0455	9.9070	0.4800
91.0738	11.2326	0.5111
91.1020	10.6279	0.4972
91.1303	9.8140	0.4777
91.1586	9.8837	0.4794
91.1868	10.3023	0.4895
91.2151	11.3953	0.5148
91.2433	9.4419	0.4686
91.2716	10.8140	0.5015
91.2999	10.2558	0.4884
91.3281	10.7442	0.4999
91.3564	11.5349	0.5179
91.3847	10.3488	0.4906
91.4129	10.6977	0.4988
91.4412	10.6512	0.4977
91.4695	10.5581	0.4955
91.4977	10.7209	0.4993
91.5260	11.0000	0.5058
91.5543	10.3023	0.4895
91.5825	10.3721	0.4911
91.6108	10.6512	0.4977
91.6391	11.2558	0.5116
91.6673	9.9535	0.4811
91.6956	10.3256	0.4900
91.7239	11.4884	0.5169
91.7521	10.5747	0.4930
91.7804	11.1034	0.5052
91.8087	10.5455	0.4896
91.8369	11.6591	0.5148
91.8652	11.1364	0.5031
91.8935	10.4545	0.4874
91.9217	11.2500	0.5056
91.9500	11.6364	0.5143
91.9783	11.4318	0.5097
92.0065	11.4545	0.5102
92.0348	11.0682	0.5015
92.0631	11.0000	0.5000
92.0913	11.4545	0.5102
92.1196	11.5682	0.5128
92.1478	11.8636	0.5193
92.1761	11.0000	0.5000
92.2044	11.1818	0.5041
92.2326	10.3636	0.4853
92.2609	12.1818	0.5262
92.2892	11.2273	0.5051
92.3174	11.3409	0.5077
92.3457	10.9773	0.4995
92.3740	11.6591	0.5148
92.4022	11.7045	0.5158
92.4305	10.4545	0.4874
92.4588	10.5000	0.4885
92.4870	11.4773	0.5107
92.5153	11.4091	0.5092
92.5436	12.4773	0.5325
92.5718	11.9318	0.5207
92.6001	11.6364	0.5143
92.6284	11.3409	0.5077
92.6566	10.9091	0.4979
92.6849	10.8864	0.4974
92.7132	10.9545	0.4990
92.7414	11.6136	0.5138
92.7697	11.7500	0.5168
92.7980	10.5455	0.4896
92.8262	11.8864	0.5198
92.8545	11.2727	0.5062
92.8828	11.7273	0.5163
92.9110	11.5227	0.5117
92.9393	12.6742	0.5337
92.9675	11.7303	0.5134
92.9958	11.3933	0.5060
93.0241	12.9438	0.5393
93.0523	12.3333	0.5235
93.0806	12.8222	0.5338
93.1089	13.5333	0.5484
93.1371	13.0889	0.5393
93.1654	13.4444	0.5466
93.1937	12.9111	0.5356
93.2219	13.0667	0.5389
93.2502	12.7778	0.5329
93.2785	12.4667	0.5263
93.3067	12.9556	0.5366
93.3350	12.6667	0.5305
93.3633	12.6889	0.5310
93.3915	13.0889	0.5393
93.4198	12.6667	0.5305
93.4481	12.0444	0.5174
93.4763	12.1556	0.5197
93.5046	12.7778	0.5329
93.5329	13.5333	0.5484
93.5611	12.5556	0.5282
93.5894	13.0667	0.5389
93.6177	12.7778	0.5329
93.6459	11.5111	0.5058
93.6742	12.0000	0.5164
93.7025	12.1333	0.5193
93.7307	12.7778	0.5329
93.7590	12.6222	0.5296
93.7872	12.7111	0.5315
93.8155	12.6667	0.5305
93.8438	11.4667	0.5048
93.8720	13.0000	0.5375
93.9003	13.2444	0.5425
93.9286	12.9111	0.5356
93.9568	12.4444	0.5259
93.9851	13.1111	0.5398
94.0134	12.7111	0.5315
94.0416	12.6444	0.5301
94.0699	13.5111	0.5479
94.0982	13.2308	0.5392
94.1264	13.6264	0.5472
94.1547	12.6154	0.5266
94.1830	12.6813	0.5279
94.2112	11.9341	0.5121
94.2395	13.0110	0.5347
94.2678	12.2609	0.5163
94.2960	13.2174	0.5360
94.3243	13.0870	0.5334
94.3526	11.8043	0.5066
94.3808	13.3913	0.5396
94.4091	13.2174	0.5360
94.4374	13.5435	0.5426
94.4656	13.0217	0.5321
94.4939	13.5435	0.5426
94.5222	13.3478	0.5387
94.5504	13.1739	0.5352
94.5787	12.7391	0.5262
94.6070	12.3478	0.5181
94.6352	13.8043	0.5478
94.6635	13.2174	0.5360
94.6917	12.1739	0.5144
94.7200	12.5000	0.5213
94.7483	12.7391	0.5262
94.7765	14.0435	0.5525
94.8048	13.4130	0.5400
94.8331	14.3696	0.5589
94.8613	12.6739	0.5249
94.8896	12.2174	0.5154
94.9179	12.8261	0.5280
94.9461	13.2174	0.5360
94.9744	13.0435	0.5325
95.0027	13.8913	0.5495
95.0309	13.3913	0.5396
95.0592	13.6087	0.5439
95.0875	12.8696	0.5289
95.1157	12.6739	0.5249
95.1440	13.1304	0.5343
95.1723	14.1522	0.5547
95.2005	12.6957	0.5253
95.2288	13.8478	0.5487
95.2571	13.3043	0.5378
95.2853	12.9892	0.5285
95.3136	14.1720	0.5521
95.3419	12.9247	0.5272
95.3701	13.1398	0.5316
95.3984	13.5269	0.5394
95.4267	13.9570	0.5479
95.4549	14.2581	0.5537
95.4832	12.8172	0.5250
95.5114	13.9574	0.5449
95.5397	13.9787	0.5454
95.5680	13.4894	0.5357
95.5962	14.0213	0.5462
95.6245	13.9787	0.5454
95.6528	13.3617	0.5332
95.6810	13.8511	0.5429
95.7093	13.7447	0.5408
95.7376	13.9787	0.5454
95.7658	13.8936	0.5437
95.7941	15.6383	0.5768
95.8224	14.0426	0.5466
95.8506	13.7660	0.5412
95.8789	14.2128	0.5499
95.9072	14.4043	0.5536
95.9354	14.2128	0.5499
95.9637	14.3404	0.5524
95.9920	13.5957	0.5378
96.0202	13.4043	0.5340
96.0485	13.7872	0.5416
96.0768	14.1489	0.5487
96.1050	14.9787	0.5645
96.1333	15.6383	0.5768
96.1616	13.8085	0.5420
96.1898	14.1489	0.5487
96.2181	15.2979	0.5705
96.2464	14.7234	0.5597
96.2746	14.4468	0.5544
96.3029	14.8936	0.5629
96.3312	14.6596	0.5585
96.3594	15.0851	0.5665
96.3877	15.3830	0.5721
96.4159	14.7660	0.5605
96.4442	15.2211	0.5661
96.4725	14.0842	0.5445
96.5007	15.5789	0.5727
96.5290	14.4842	0.5522
96.5573	15.0316	0.5625
96.5855	14.8000	0.5582
96.6138	15.6421	0.5739
96.6421	15.0737	0.5633
96.6703	14.9474	0.5610
96.6986	14.1053	0.5449
96.7269	15.9792	0.5770
96.7551	15.4167	0.5667
96.7834	14.7917	0.5551
96.8117	15.1458	0.5617
96.8399	14.5208	0.5500
96.8682	15.4583	0.5675
96.8965	14.8750	0.5567
96.9247	15.5000	0.5683
96.9530	16.1875	0.5807
96.9813	15.4375	0.5671
97.0095	15.7083	0.5721
97.0378	15.9792	0.5770
97.0661	15.7083	0.5721
97.0943	16.4167	0.5848
97.1226	15.0625	0.5602
97.1509	16.0833	0.5789
97.1791	16.0208	0.5777
97.2074	16.0208	0.5777
97.2356	16.4375	0.5852
97.2639	16.6250	0.5885
97.2922	17.6875	0.6070
97.3204	16.8958	0.5933
97.3487	17.0833	0.5966
97.3770	16.9167	0.5937
97.4052	17.4583	0.6031
97.4335	18.1667	0.6152
97.4618	17.6250	0.6060
97.4900	17.7083	0.6074
97.5183	18.6250	0.6229
97.5466	18.7708	0.6253
97.5748	18.6250	0.6229
97.6031	18.8041	0.6227
97.6314	18.4948	0.6175
97.6596	18.5567	0.6186
97.6879	19.3196	0.6311
97.7162	18.0206	0.6096
97.7444	19.1959	0.6291
97.7727	18.8041	0.6227
97.8010	20.4948	0.6501
97.8292	20.8454	0.6556
97.8575	22.1031	0.6751
97.8858	18.5155	0.6179
97.9140	21.0309	0.6585
97.9423	21.2990	0.6627
97.9706	20.5102	0.6470
97.9988	21.2041	0.6578
98.0271	21.6122	0.6641
98.0553	23.2041	0.6882
98.0836	23.3673	0.6906
98.1119	22.9184	0.6839
98.1401	23.6122	0.6942
98.1684	23.7755	0.6966
98.1967	24.5102	0.7073
98.2249	24.5510	0.7078
98.2532	26.0000	0.7284
98.2815	25.5510	0.7221
98.3097	27.1837	0.7448
98.3380	27.5102	0.7493
98.3663	25.1429	0.7163
98.3945	27.7959	0.7532
98.4228	27.2653	0.7459
98.4511	27.8776	0.7543
98.4793	29.3878	0.7744
98.5076	29.9796	0.7822
98.5359	31.5306	0.8022
98.5641	29.5918	0.7771
98.5924	30.7551	0.7922
98.6207	31.1429	0.7972
98.6489	29.3265	0.7736
98.6772	33.2449	0.8237
98.7055	32.1837	0.8104
98.7337	33.2449	0.8237
98.7620	32.7959	0.8181
98.7903	31.4898	0.8017
98.8185	33.4082	0.8257
98.8468	34.3265	0.8370
98.8751	33.8571	0.8312
98.9033	34.9592	0.8447
98.9316	35.3061	0.8488
98.9598	35.3469	0.8493
98.9881	35.3469	0.8493
99.0164	36.2424	0.8557
99.0446	35.4747	0.8466
99.0729	36.2626	0.8559
99.1012	37.0909	0.8656
99.1294	38.2626	0.8792
99.1577	36.5455	0.8592
99.1860	36.5600	0.8551
99.2142	36.2400	0.8514
99.2425	36.6200	0.8558
99.2708	36.4600	0.8539
99.2990	37.1800	0.8623
99.3273	36.1600	0.8504
99.3556	35.7400	0.8455
99.3838	35.6400	0.8443
99.4121	34.9400	0.8359
99.4404	34.0200	0.8249
99.4686	33.9400	0.8239
99.4969	34.1600	0.8266
99.5252	33.1800	0.8146
99.5534	31.5400	0.7942
99.5817	30.9400	0.7866
99.6100	31.0000	0.7874
99.6382	29.0400	0.7621
99.6665	27.5000	0.7416
99.6948	27.9000	0.7470
99.7230	27.3400	0.7395
99.7513	28.0200	0.7486
99.7795	26.0000	0.7211
99.8078	24.4200	0.6989
99.8361	25.8000	0.7183
99.8643	23.7000	0.6885
99.8926	23.9000	0.6914
99.9209	20.9800	0.6478
99.9491	21.8200	0.6606
99.9774	20.8400	0.6456
100.0057	21.8000	0.6603
100.0339	21.7200	0.6591
100.0622	20.2400	0.6362
100.0905	20.6800	0.6431
100.1187	19.8200	0.6296
100.1470	18.6200	0.6102
100.1753	19.5600	0.6255
100.2035	18.4800	0.6079
100.2318	19.3400	0.6219
100.2601	18.6600	0.6109
100.2883	18.5000	0.6083
100.3166	18.1800	0.6030
100.3449	19.0800	0.6177
100.3731	17.9800	0.5997
100.4014	18.8515	0.6110
100.4297	17.9804	0.5938
100.4579	17.9804	0.5938
100.4862	18.4118	0.6008
100.5145	18.8431	0.6078
100.5427	17.6471	0.5882
100.5710	17.3922	0.5840
100.5993	18.2745	0.5986
100.6275	18.7647	0.6066
100.6558	17.8235	0.5912
100.6840	18.2353	0.5980
100.7123	17.1961	0.5807
100.7406	17.5294	0.5863
100.7688	17.6863	0.5889
100.7971	17.5294	0.5863
100.8254	17.7255	0.5895
100.8536	16.8431	0.5747
100.8819	17.1765	0.5803
100.9102	16.5686	0.5700
100.9384	17.0392	0.5780
100.9667	16.6471	0.5713
100.9950	17.4706	0.5853
101.0232	16.8824	0.5753
101.0515	16.8039	0.5740
101.0798	16.6667	0.5717
101.1080	16.5294	0.5693
101.1363	17.6078	0.5876
101.1646	16.3529	0.5663
101.1928	17.1961	0.5807
101.2211	16.0588	0.5611
101.2494	17.5882	0.5873
101.2776	16.7255	0.5727
101.3059	16.0392	0.5608
101.3342	16.0000	0.5601
101.3624	18.4118	0.6008
101.3907	18.3137	0.5992
101.4190	16.0980	0.5618
101.4472	16.5490	0.5696
101.4755	16.0000	0.5601
101.5037	16.8039	0.5740
101.5320	17.7843	0.5905
101.5603	16.2941	0.5652
101.5885	16.0980	0.5618
101.6168	16.2549	0.5646
101.6451	16.7255	0.5727
101.6733	16.9804	0.5770
101.7016	17.2745	0.5820
101.7299	15.8627	0.5577
101.7581	17.0588	0.5783
101.7864	16.7843	0.5737
101.8147	16.0588	0.5611
101.8429	16.1553	0.5601
101.8712	17.6154	0.5820
101.8995	16.6538	0.5659
101.9277	16.5769	0.5646
101.9560	15.9615	0.5540
101.9843	16.7500	0.5676
102.0125	17.2692	0.5763
102.0408	16.0000	0.5547
102.0691	17.4231	0.5788
102.0973	16.1346	0.5570
102.1256	16.5192	0.5636
102.1539	16.9808	0.5714
102.1821	16.5962	0.5649
102.2104	16.8269	0.5689
102.2387	15.7692	0.5507
102.2669	17.1731	0.5747
102.2952	17.4423	0.5792
102.3234	16.2115	0.5584
102.3517	15.6538	0.5487
102.3800	16.0577	0.5557
102.4082	16.3846	0.5613
102.4365	16.6731	0.5662
102.4648	16.0962	0.5564
102.4930	16.7692	0.5679
102.5213	16.0577	0.5557
102.5496	16.6538	0.5659
102.5778	16.1154	0.5567
102.6061	15.5769	0.5473
102.6344	15.3654	0.5436
102.6626	16.1346	0.5570
102.6909	16.3077	0.5600
102.7192	16.1923	0.5580
102.7474	17.2308	0.5756
102.7757	17.1923	0.5750
102.8040	16.5577	0.5643
102.8322	15.1923	0.5405
102.8605	17.1154	0.5737
102.8888	16.5577	0.5643
102.9170	16.4423	0.5623
102.9453	15.8846	0.5527
102.9736	16.7115	0.5669
103.0018	16.7308	0.5672
103.0301	15.6731	0.5490
103.0584	16.5192	0.5636
103.0866	16.2115	0.5584
103.1149	16.8462	0.5692
103.1432	16.3654	0.5610
103.1714	16.2308	0.5587
103.1997	15.6346	0.5483
103.2279	16.4231	0.5620
103.2562	15.7905	0.5484
103.2845	16.4000	0.5589
103.3127	16.1143	0.5540
103.3410	16.5094	0.5581
103.3693	15.8113	0.5462
103.3975	16.7547	0.5623
103.4258	17.1509	0.5689
103.4541	17.9434	0.5819
103.4823	17.6415	0.5769
103.5106	16.8302	0.5635
103.5389	16.9057	0.5648
103.5671	17.2642	0.5707
103.5954	16.4717	0.5575
103.6237	15.9057	0.5478
103.6519	16.9057	0.5648
103.6802	15.9811	0.5491
103.7085	16.2075	0.5530
103.7367	17.2264	0.5701
103.7650	17.0566	0.5673
103.7933	17.0755	0.5676
103.8215	17.7170	0.5782
103.8498	17.3962	0.5729
103.8781	16.9811	0.5660
103.9063	16.9623	0.5657
103.9346	17.0377	0.5670
103.9629	16.4340	0.5568
103.9911	17.8868	0.5809
104.0194	17.0755	0.5676
104.0476	17.4151	0.5732
104.0759	16.2453	0.5536
104.1042	17.4151	0.5732
104.1324	15.4906	0.5406
104.1607	17.2453	0.5704
104.1890	15.6226	0.5429
104.2172	16.0755	0.5507
104.2455	17.7736	0.5791
104.2738	17.0755	0.5676
104.3020	15.2264	0.5360
104.3303	17.5660	0.5757
104.3586	16.1698	0.5524
104.3868	16.0000	0.5494
104.4151	16.3774	0.5559
104.4434	15.8302	0.5465
104.4716	16.5283	0.5584
104.4999	15.6792	0.5439
104.5282	16.1321	0.5517
104.5564	17.2075	0.5698
104.5847	15.5094	0.5410
104.6130	16.2264	0.5533
104.6412	16.1509	0.5520
104.6695	16.6168	0.5573
104.6978	15.9626	0.5462
104.7260	16.8037	0.5604
104.7543	15.4206	0.5369
104.7826	16.5421	0.5561
104.8108	16.3889	0.5509
104.8391	16.7037	0.5562
104.8674	16.1667	0.5472
104.8956	16.2778	0.5490
104.9239	16.4074	0.5512
104.9521	16.5370	0.5534
104.9804	15.7593	0.5402
105.0087	15.5926	0.5374
105.0369	16.2778	0.5490
105.0652	15.7407	0.5399
105.0935	16.3148	0.5497
105.1217	16.7222	0.5565
105.1500	16.8704	0.5589
105.1783	16.6111	0.5546
105.2065	17.4630	0.5687
105.2348	16.1111	0.5462
105.2631	16.6111	0.5546
105.2913	16.2407	0.5484
105.3196	15.7593	0.5402
105.3479	16.5556	0.5537
105.3761	16.8333	0.5583
105.4044	16.8889	0.5592
105.4327	16.2037	0.5478
105.4609	16.5556	0.5537
105.4892	16.0556	0.5453
105.5175	16.2778	0.5490
105.5457	17.1481	0.5635
105.5740	16.6481	0.5552
105.6023	16.8519	0.5586
105.6305	16.1667	0.5472
105.6588	16.8519	0.5586
105.6871	16.0000	0.5443
105.7153	15.9074	0.5428
105.7436	16.5926	0.5543
105.7718	16.9630	0.5605
105.8001	16.8519	0.5586
105.8284	16.5185	0.5531
105.8566	16.7037	0.5562
105.8849	15.8148	0.5412
105.9132	16.0556	0.5453
105.9414	15.7407	0.5399
105.9697	16.4444	0.5518
105.9980	17.4074	0.5678
106.0262	17.0741	0.5623
106.0545	15.7037	0.5393
106.0828	16.8624	0.5562
106.1110	15.8165	0.5387
106.1393	16.3119	0.5471
106.1676	16.0550	0.5428
106.1958	16.4587	0.5495
106.2241	16.3303	0.5474
106.2524	15.8165	0.5387
106.2806	16.5455	0.5485
106.3089	15.7818	0.5357
106.3372	16.0182	0.5397
106.3654	15.7818	0.5357
106.3937	16.1636	0.5421
106.4220	16.0000	0.5394
106.4502	15.1273	0.5244
106.4785	15.5636	0.5320
106.5068	15.9818	0.5391
106.5350	16.1636	0.5421
106.5633	16.4909	0.5476
106.5915	16.6000	0.5494
106.6198	16.0364	0.5400
106.6481	16.3091	0.5445
106.6763	16.5455	0.5485
106.7046	16.3636	0.5455
106.7329	17.9091	0.5706
106.7611	16.7273	0.5515
106.7894	16.4364	0.5467
106.8177	15.8545	0.5369
106.8459	17.3636	0.5619
106.8742	17.0000	0.5560
106.9025	16.5455	0.5485
106.9307	15.2545	0.5266
106.9590	17.3455	0.5616
106.9873	16.6182	0.5497
107.0155	15.7091	0.5344
107.0438	16.1818	0.5424
107.0721	15.4909	0.5307
107.1003	16.3091	0.5445
107.1286	15.6545	0.5335
107.1569	17.8909	0.5703
107.1851	16.2909	0.5442
107.2134	16.2000	0.5427
107.2417	16.2364	0.5433
107.2699	17.1636	0.5586
107.2982	16.8364	0.5533
107.3265	15.6182	0.5329
107.3547	16.2364	0.5433
107.3830	16.6545	0.5503
107.4113	15.6909	0.5341
107.4395	15.9818	0.5391
107.4678	16.0364	0.5400
107.4960	16.3604	0.5429
107.5243	16.3784	0.5432
107.5526	17.0991	0.5551
107.5808	15.7297	0.5324
107.6091	16.8108	0.5504
107.6374	17.3694	0.5594
107.6656	16.8649	0.5512
107.6939	15.8018	0.5336
107.7222	16.6306	0.5474
107.7504	17.4464	0.5582
107.7787	16.5000	0.5428
107.8070	16.8571	0.5487
107.8352	16.2321	0.5384
107.8635	16.9821	0.5507
107.8918	16.6786	0.5457
107.9200	16.3214	0.5399
107.9483	15.6250	0.5282
107.9766	16.0536	0.5354
108.0048	17.1071	0.5527
108.0331	16.6429	0.5452
108.0614	16.0893	0.5360
108.0896	16.2143	0.5381
108.1179	17.2857	0.5556
108.1462	15.6607	0.5288
108.1744	17.1250	0.5530
108.2027	16.2143	0.5381
108.2310	15.6964	0.5294
108.2592	16.2679	0.5390
108.2875	16.9643	0.5504
108.3157	16.7321	0.5466
108.3440	15.9643	0.5339
108.3723	16.6429	0.5452
108.4005	16.6429	0.5452
108.4288	15.2857	0.5225
108.4571	16.5536	0.5437
108.4853	16.9464	0.5501
108.5136	16.8750	0.5489
108.5419	16.9286	0.5498
108.5701	16.4107	0.5413
108.5984	16.9286	0.5498
108.6267	16.0357	0.5351
108.6549	16.7321	0.5466
108.6832	16.1071	0.5363
108.7115	16.1622	0.5396
108.7397	16.4182	0.5464
108.7680	16.8807	0.5565
108.7963	16.3148	0.5497
108.8245	16.3925	0.5535
108.8528	17.0755	0.5676
108.8811	15.7524	0.5478
108.9093	17.1154	0.5737
108.9376	16.3883	0.5641
108.9659	15.0784	0.5437
108.9941	16.5347	0.5722
109.0224	16.5600	0.5755
109.0507	16.9899	0.5859
109.0789	17.8367	0.6033
109.1072	16.5361	0.5839
109.1355	16.0417	0.5781
109.1637	16.8842	0.5962
109.1920	16.8936	0.5995
109.2202	16.3404	0.5896
109.2485	17.5054	0.6136
109.2768	16.5000	0.5989
109.3050	16.5275	0.6027
109.3333	17.6222	0.6258
109.3616	17.1011	0.6199
109.3898	16.6818	0.6157
109.4181	15.9310	0.6052
109.4464	16.9767	0.6283
109.4746	16.6118	0.6252
109.5029	16.6429	0.6295
109.5312	16.6024	0.6325
109.5594	17.4146	0.6517
109.5877	16.7160	0.6424
109.6160	17.1500	0.6548
109.6442	17.0886	0.6577
109.6725	17.5128	0.6701
109.7008	16.8831	0.6622
109.7290	16.2632	0.6542
109.7573	15.4133	0.6411
109.7856	15.8378	0.6543
109.8138	17.0411	0.6833
109.8421	16.2222	0.6713
109.8704	17.0986	0.6940
109.8986	17.4571	0.7062
109.9269	15.8261	0.6773
109.9552	16.5294	0.6973
109.9834	17.3433	0.7195
