1.544427
20.0141	42.5556	2.1745
20.0424	39.0000	2.0817
20.0707	41.1111	2.1373
20.0989	40.0000	2.1082
20.1272	45.5556	2.2498
20.1555	41.2222	2.1402
20.1837	39.4444	2.0935
20.2120	41.2222	2.1402
20.2403	38.4444	2.0668
20.2685	41.4444	2.1459
20.2968	38.0000	2.0548
20.3251	40.2222	2.1140
20.3533	38.3333	2.0638
20.3816	43.6667	2.2027
20.4099	38.0000	2.0548
20.4381	37.3333	2.0367
20.4664	38.8889	2.0787
20.4946	42.1111	2.1631
20.5229	41.1111	2.1373
20.5512	40.0000	2.1082
20.5794	42.8889	2.1830
20.6077	40.4444	2.1199
20.6360	38.3333	2.0638
20.6642	37.2222	2.0337
20.6925	36.5556	2.0154
20.7208	35.4444	1.9845
20.7490	39.0526	2.0275
20.7773	38.6316	2.0166
20.8056	38.2105	2.0055
20.8338	36.6316	1.9637
20.8621	38.0000	2.0000
20.8904	36.3158	1.9552
20.9186	40.7368	2.0708
20.9469	35.4737	1.9324
20.9752	34.6316	1.9093
21.0034	40.8421	2.0734
21.0317	38.3158	2.0083
21.0600	40.2105	2.0573
21.0882	34.2105	1.8977
21.1165	45.0526	2.1777
21.1448	33.7895	1.8859
21.1730	36.2105	1.9523
21.2013	37.5789	1.9889
21.2296	37.4737	1.9861
21.2578	36.3158	1.9552
21.2861	35.9000	1.8947
21.3143	37.5000	1.9365
21.3426	38.9000	1.9723
21.3709	37.7000	1.9416
21.3991	35.8000	1.8921
21.4274	36.3000	1.9053
21.4557	38.0000	1.9494
21.4839	34.7000	1.8628
21.5122	33.7000	1.8358
21.5405	36.8000	1.9183
21.5687	34.9000	1.8682
21.5970	35.1000	1.8735
21.6253	39.3000	1.9824
21.6535	31.4000	1.7720
21.6818	34.9000	1.8682
21.7101	33.7000	1.8358
21.7383	36.0000	1.8974
21.7666	33.3000	1.8248
21.7949	40.1000	2.0025
21.8231	35.6000	1.8868
21.8514	35.0000	1.8708
21.8797	32.4000	1.8000
21.9079	32.6000	1.8055
21.9362	34.3000	1.8520
21.9645	36.7000	1.9157
21.9927	36.2000	1.9026
22.0210	37.3000	1.9313
22.0493	32.5000	1.8028
22.0775	31.3000	1.7692
22.1058	37.9000	1.9468
22.1340	36.2000	1.9026
22.1623	32.6000	1.8055
22.1906	34.0000	1.8439
22.2188	34.1000	1.8466
22.2471	35.5000	1.8841
22.2754	33.0000	1.8166
22.3036	35.2000	1.8762
22.3319	36.2000	1.9026
22.3602	33.2000	1.8221
22.3884	34.3000	1.8520
22.4167	30.8000	1.7550
22.4450	33.8000	1.8385
22.4732	33.8000	1.8385
22.5015	29.6000	1.7205
22.5298	31.4000	1.7720
22.5580	33.3000	1.8248
22.5863	31.3000	1.7692
22.6146	31.9000	1.7861
22.6428	32.0000	1.7889
22.6711	32.0000	1.7889
22.6994	30.3000	1.7407
22.7276	32.9000	1.8138
22.7559	30.8000	1.7550
22.7842	34.7000	1.8628
22.8124	33.7000	1.8358
22.8407	34.5000	1.8574
22.8690	34.8000	1.8655
22.8972	33.4000	1.8276
22.9255	32.9000	1.8138
22.9538	30.8000	1.7550
22.9820	35.7000	1.8894
23.0103	30.5000	1.7464
23.0385	34.0000	1.8439
23.0668	32.7000	1.8083
23.0951	30.8000	1.7550
23.1233	27.4000	1.6553
23.1516	31.3000	1.7692
23.1799	29.1000	1.7059
23.2081	29.8000	1.7263
23.2364	31.9000	1.7861
23.2647	31.4000	1.7720
23.2929	29.9000	1.7292
23.3212	29.0000	1.7029
23.3495	32.7000	1.8083
23.3777	31.9000	1.7861
23.4060	30.6000	1.7493
23.4343	31.3000	1.7692
23.4625	30.0000	1.7321
23.4908	29.6000	1.7205
23.5191	31.1000	1.7635
23.5473	29.6000	1.7205
23.5756	32.2000	1.7944
23.6039	29.5000	1.7176
23.6321	28.8000	1.6971
23.6604	33.5000	1.8303
23.6887	32.9000	1.8138
23.7169	30.4000	1.7436
23.7452	30.5000	1.7464
23.7735	30.2000	1.7378
23.8017	30.2000	1.7378
23.8300	32.3000	1.7972
23.8582	33.2000	1.8221
23.8865	29.6000	1.7205
23.9148	32.2000	1.7944
23.9430	31.6000	1.7776
23.9713	27.8000	1.6673
23.9996	28.5000	1.6882
24.0278	30.1000	1.7349
24.0561	31.1000	1.7635
24.0844	30.7000	1.7521
24.1126	30.9000	1.7578
24.1409	30.3000	1.7407
24.1692	27.5000	1.6583
24.1974	31.6000	1.7776
24.2257	32.1000	1.7916
24.2540	31.2000	1.7664
24.2822	27.9000	1.6703
24.3105	29.6000	1.7205
24.3388	27.4000	1.6553
24.3670	31.2000	1.7664
24.3953	31.7000	1.7804
24.4236	26.9000	1.6401
24.4518	29.2000	1.7088
24.4801	28.7000	1.6941
24.5084	29.9000	1.7292
24.5366	32.5000	1.8028
24.5649	28.2000	1.6793
24.5932	27.2000	1.6492
24.6214	27.7000	1.6643
24.6497	27.4000	1.6553
24.6780	27.3000	1.6523
24.7062	31.0000	1.7607
24.7345	30.6000	1.7493
24.7627	26.0000	1.6125
24.7910	27.8000	1.6673
24.8193	29.2000	1.7088
24.8475	26.3000	1.6217
24.8758	28.0000	1.6733
24.9041	29.6000	1.7205
24.9323	27.1000	1.6462
24.9606	25.4000	1.5937
24.9889	25.4000	1.5937
25.0171	28.4000	1.6852
25.0454	31.4000	1.7720
25.0737	27.3000	1.6523
25.1019	26.8000	1.6371
25.1302	25.7143	1.5649
25.1585	26.3810	1.5851
25.1867	27.3333	1.6134
25.2150	29.5238	1.6768
25.2433	28.0952	1.6358
25.2715	26.2857	1.5822
25.2998	26.5714	1.5908
25.3281	28.7619	1.6551
25.3563	24.3810	1.5238
25.3846	24.9524	1.5416
25.4129	26.8571	1.5993
25.4411	25.5238	1.5591
25.4694	28.3810	1.6441
25.4977	28.0000	1.6330
25.5259	29.8095	1.6849
25.5542	25.9048	1.5707
25.5824	29.9048	1.6876
25.6107	26.0000	1.5736
25.6390	26.2857	1.5822
25.6672	27.1429	1.6078
25.6955	26.1905	1.5793
25.7238	25.7273	1.5293
25.7520	25.2727	1.5158
25.7803	27.1818	1.5720
25.8086	24.0909	1.4799
25.8368	27.9091	1.5929
25.8651	26.5455	1.5535
25.8934	27.2727	1.5746
25.9216	25.6364	1.5266
25.9499	25.0909	1.5103
25.9782	24.0000	1.4771
26.0064	28.8182	1.6186
26.0347	28.4545	1.6083
26.0630	26.4545	1.5508
26.0912	25.1818	1.5130
26.1195	26.6364	1.5561
26.1478	25.4545	1.5212
26.1760	24.0000	1.4771
26.2043	24.8182	1.5021
26.2326	27.7273	1.5877
26.2608	28.0000	1.5954
26.2891	25.4545	1.5212
26.3174	23.7273	1.4687
26.3456	25.4545	1.5212
26.3739	27.4545	1.5798
26.4021	28.7273	1.6160
26.4304	23.5455	1.4630
26.4587	26.4545	1.5508
26.4869	23.7273	1.4687
26.5152	24.5455	1.4938
26.5435	26.7273	1.5588
26.5717	23.9091	1.4743
26.6000	22.0909	1.4171
26.6283	26.1818	1.5428
26.6565	23.5455	1.4630
26.6848	28.1818	1.6006
26.7131	25.7273	1.5293
26.7413	26.3636	1.5481
26.7696	25.9091	1.5347
26.7979	23.6364	1.4659
26.8261	24.2727	1.4855
26.8544	27.0000	1.5667
26.8827	22.6364	1.4345
26.9109	25.6364	1.5266
26.9392	22.3636	1.4259
26.9675	22.0909	1.4171
26.9957	24.1818	1.4827
27.0240	24.3636	1.4882
27.0523	24.0000	1.4771
27.0805	21.3636	1.3936
27.1088	25.5455	1.5239
27.1371	25.5455	1.5239
27.1653	25.7273	1.5293
27.1936	21.2727	1.3906
27.2219	22.5455	1.4316
27.2501	22.7273	1.4374
27.2784	21.0909	1.3847
27.3066	23.3636	1.4574
27.3349	21.7273	1.4054
27.3632	27.6364	1.5851
27.3914	24.7273	1.4993
27.4197	21.0909	1.3847
27.4480	25.6364	1.5266
27.4762	25.0909	1.5103
27.5045	24.7273	1.4993
27.5328	23.5455	1.4630
27.5610	24.9091	1.5048
27.5893	23.0909	1.4489
27.6176	21.0000	1.3817
27.6458	23.8182	1.4715
27.6741	24.0909	1.4799
27.7024	23.6364	1.4659
27.7306	24.8182	1.5021
27.7589	21.9091	1.4113
27.7872	23.3636	1.4574
27.8154	20.5455	1.3667
27.8437	23.1818	1.4517
27.8720	23.9091	1.4743
27.9002	24.6364	1.4966
27.9285	22.4545	1.4287
27.9568	23.2727	1.4545
27.9850	21.4545	1.3966
28.0133	23.0909	1.4489
28.0416	24.0000	1.4771
28.0698	21.4545	1.3966
28.0981	22.3636	1.4259
28.1263	25.4545	1.5212
28.1546	21.9091	1.4113
28.1829	21.5455	1.3995
28.2111	22.5455	1.4316
28.2394	21.1818	1.3877
28.2677	22.1818	1.4200
28.2959	24.0909	1.4799
28.3242	22.6364	1.4345
28.3525	22.9091	1.4431
28.3807	23.7273	1.4687
28.4090	24.8182	1.5021
28.4373	21.7273	1.4054
28.4655	20.2727	1.3576
28.4938	21.6364	1.4025
28.5221	19.4545	1.3299
28.5503	23.7273	1.4687
28.5786	24.0909	1.4799
28.6069	21.6364	1.4025
28.6351	22.5455	1.4316
28.6634	22.0000	1.4142
28.6917	22.9091	1.4431
28.7199	21.5455	1.3995
28.7482	21.2727	1.3906
28.7765	22.7273	1.4374
28.8047	22.2727	1.4230
28.8330	22.0000	1.4142
28.8613	20.7273	1.3727
28.8895	23.0909	1.4489
28.9178	20.5455	1.3667
28.9461	20.3636	1.3606
28.9743	22.0000	1.4142
29.0026	21.6364	1.4025
29.0308	21.9091	1.4113
29.0591	21.2727	1.3906
29.0874	21.3636	1.3936
29.1156	21.8182	1.4084
29.1439	22.3636	1.4259
29.1722	20.8182	1.3757
29.2004	22.0000	1.4142
29.2287	21.6364	1.4025
29.2570	20.3636	1.3606
29.2852	22.5455	1.4316
29.3135	18.8182	1.3080
29.3418	22.0000	1.4142
29.3700	22.1818	1.4200
29.3983	23.8182	1.4715
29.4266	20.8182	1.3757
29.4548	22.6364	1.4345
29.4831	20.6087	1.3387
29.5114	17.0435	1.2174
29.5396	19.9130	1.3159
29.5679	20.2609	1.3273
29.5962	20.8696	1.3471
29.6244	20.0000	1.3188
29.6527	20.2609	1.3273
29.6810	20.7826	1.3443
29.7092	23.6522	1.4341
29.7375	20.0870	1.3216
29.7658	19.5652	1.3043
29.7940	21.3913	1.3639
29.8223	24.6957	1.4654
29.8505	19.4783	1.3014
29.8788	19.2174	1.2927
29.9071	19.4783	1.3014
29.9353	22.5217	1.3994
29.9636	20.8696	1.3471
29.9919	20.5217	1.3359
30.0201	22.1739	1.3886
30.0484	23.5652	1.4315
30.0767	20.5217	1.3359
30.1049	19.5652	1.3043
30.1332	19.7500	1.2829
30.1615	18.3333	1.2360
30.1897	20.5833	1.3097
30.2180	19.8333	1.2856
30.2463	19.6667	1.2802
30.2745	18.9167	1.2555
30.3028	21.8333	1.3489
30.3311	21.8333	1.3489
30.3593	18.0833	1.2276
30.3876	21.8333	1.3489
30.4159	21.1667	1.3281
30.4441	21.5833	1.3411
30.4724	21.7500	1.3463
30.5007	20.4167	1.3044
30.5289	18.5833	1.2444
30.5572	19.2500	1.2666
30.5855	20.4167	1.3044
30.6137	19.0833	1.2611
30.6420	21.4167	1.3359
30.6702	18.0000	1.2247
30.6985	17.6667	1.2134
30.7268	19.0000	1.2583
30.7550	18.5833	1.2444
30.7833	18.9167	1.2555
30.8116	19.5833	1.2775
30.8398	19.5000	1.2748
30.8681	19.2500	1.2666
30.8964	18.0000	1.2247
30.9246	20.6667	1.3123
30.9529	19.0833	1.2611
30.9812	19.5000	1.2748
31.0094	20.0000	1.2910
31.0377	18.8333	1.2528
31.0660	19.5833	1.2775
31.0942	21.1667	1.3281
31.1225	21.2500	1.3307
31.1508	19.0833	1.2611
31.1790	18.0000	1.2247
31.2073	16.5833	1.1756
31.2356	20.8333	1.3176
31.2638	18.9167	1.2555
31.2921	20.6667	1.3123
31.3204	17.7500	1.2162
31.3486	20.6667	1.3123
31.3769	20.5833	1.3097
31.4052	19.1667	1.2638
31.4334	20.7500	1.3150
31.4617	17.5833	1.2105
31.4900	17.1667	1.1961
31.5182	18.7500	1.2500
31.5465	19.9167	1.2883
31.5747	21.2500	1.3307
31.6030	18.6667	1.2472
31.6313	18.7500	1.2500
31.6595	18.3333	1.2360
31.6878	19.7500	1.2829
31.7161	17.5833	1.2105
31.7443	18.5000	1.2416
31.7726	17.7500	1.2162
31.8009	18.2500	1.2332
31.8291	19.1667	1.2638
31.8574	20.7500	1.3150
31.8857	20.5000	1.3070
31.9139	20.5000	1.3070
31.9422	15.5833	1.1396
31.9705	18.6667	1.2472
31.9987	18.5833	1.2444
32.0270	18.8333	1.2528
32.0553	17.5000	1.2076
32.0835	18.1667	1.2304
32.1118	19.0000	1.2583
32.1401	18.3333	1.2360
32.1683	19.9167	1.2883
32.1966	18.1667	1.2304
32.2249	18.4167	1.2388
32.2531	16.8333	1.1844
32.2814	17.1667	1.1961
32.3097	18.9167	1.2555
32.3379	18.0833	1.2276
32.3662	21.3333	1.3333
32.3944	18.0000	1.2247
32.4227	20.3333	1.3017
32.4510	21.6667	1.3437
32.4792	17.8333	1.2191
32.5075	16.6667	1.1785
32.5358	17.0833	1.1932
32.5640	17.1667	1.1961
32.5923	19.4167	1.2720
32.6206	18.0000	1.2247
32.6488	18.3333	1.2360
32.6771	17.1667	1.1961
32.7054	17.4167	1.2047
32.7336	16.9167	1.1873
32.7619	17.6667	1.2134
32.7902	18.4167	1.2388
32.8184	16.9167	1.1873
32.8467	17.0000	1.1902
32.8750	18.6667	1.2472
32.9032	18.0833	1.2276
32.9315	18.7500	1.2500
32.9598	19.5000	1.2748
32.9880	18.7500	1.2500
33.0163	20.5000	1.3070
33.0446	17.6667	1.2134
33.0728	19.3333	1.2693
33.1011	20.0833	1.2937
33.1294	17.8333	1.2191
33.1576	20.5000	1.3070
33.1859	16.9167	1.1873
33.2142	18.5833	1.2444
33.2424	16.8333	1.1844
33.2707	18.8333	1.2528
33.2989	17.5833	1.2105
33.3272	17.9167	1.2219
33.3555	17.6667	1.2134
33.3837	18.0000	1.2247
33.4120	18.5000	1.2416
33.4403	17.5000	1.2076
33.4685	17.1667	1.1961
33.4968	17.4167	1.2047
33.5251	16.2500	1.1637
33.5533	16.8333	1.1844
33.5816	17.4167	1.2047
33.6099	17.1667	1.1961
33.6381	18.4167	1.2388
33.6664	16.7500	1.1815
33.6947	18.3333	1.2360
33.7229	16.6667	1.1785
33.7512	18.9167	1.2555
33.7795	16.9167	1.1873
33.8077	17.2500	1.1990
33.8360	18.4167	1.2388
33.8643	16.1600	1.1370
33.8925	19.0400	1.2342
33.9208	15.9200	1.1285
33.9491	15.8400	1.1257
33.9773	17.2000	1.1730
34.0056	16.2400	1.1398
34.0339	14.4000	1.0733
34.0621	18.1600	1.2053
34.0904	15.4400	1.1114
34.1186	16.6400	1.1538
34.1469	16.1600	1.1370
34.1752	14.1600	1.0643
34.2034	17.3600	1.1785
34.2317	15.6800	1.1200
34.2600	16.5600	1.1510
34.2882	14.5600	1.0793
34.3165	17.2000	1.1730
34.3448	20.2400	1.2725
34.3730	18.9600	1.2316
34.4013	15.0400	1.0969
34.4296	17.7600	1.1920
34.4578	15.5200	1.1143
34.4861	17.7600	1.1920
34.5144	15.5200	1.1143
34.5426	16.1600	1.1370
34.5709	16.9231	1.1410
34.5992	16.0000	1.1094
34.6274	17.8462	1.1717
34.6557	15.8462	1.1041
34.6840	16.1538	1.1147
34.7122	17.7692	1.1691
34.7405	15.8462	1.1041
34.7688	16.7692	1.1358
34.7970	18.4615	1.1917
34.8253	16.4615	1.1253
34.8536	17.6923	1.1666
34.8818	15.7692	1.1014
34.9101	16.9231	1.1410
34.9383	18.9231	1.2065
34.9666	15.4615	1.0906
34.9949	14.4615	1.0547
35.0231	17.2308	1.1513
35.0514	16.1538	1.1147
35.0797	17.7692	1.1691
35.1079	16.6923	1.1331
35.1362	14.8462	1.0686
35.1645	17.0769	1.1461
35.1927	16.7692	1.1358
35.2210	16.3077	1.1200
35.2493	17.4615	1.1590
35.2775	16.2308	1.1174
35.3058	15.6154	1.0960
35.3341	15.7692	1.1014
35.3623	16.0000	1.1094
35.3906	17.3846	1.1564
35.4189	14.8462	1.0686
35.4471	15.9231	1.1067
35.4754	14.9231	1.0714
35.5037	16.3077	1.1200
35.5319	15.8462	1.1041
35.5602	17.1538	1.1487
35.5885	16.0769	1.1121
35.6167	17.2308	1.1513
35.6450	16.6923	1.1331
35.6733	16.4615	1.1253
35.7015	17.3077	1.1538
35.7298	18.1538	1.1817
35.7581	18.0000	1.1767
35.7863	16.0000	1.1094
35.8146	14.6154	1.0603
35.8428	15.7692	1.1014
35.8711	17.6923	1.1666
35.8994	16.6154	1.1305
35.9276	16.3077	1.1200
35.9559	16.0769	1.1121
35.9842	18.2308	1.1842
36.0124	14.5385	1.0575
36.0407	14.8462	1.0686
36.0690	14.2308	1.0463
36.0972	13.3846	1.0147
36.1255	15.0000	1.0742
36.1538	14.2308	1.0463
36.1820	17.2308	1.1513
36.2103	15.3846	1.0879
36.2386	14.8462	1.0686
36.2668	16.0000	1.1094
36.2951	15.0000	1.0742
36.3234	16.3846	1.1227
36.3516	15.2308	1.0824
36.3799	16.7692	1.1358
36.4082	15.8462	1.1041
36.4364	14.8462	1.0686
36.4647	14.1538	1.0434
36.4930	15.3077	1.0851
36.5212	16.9231	1.1410
36.5495	15.0000	1.0742
36.5778	14.1538	1.0434
36.6060	15.6923	1.0987
36.6343	17.2308	1.1513
36.6625	14.7692	1.0659
36.6908	15.6923	1.0987
36.7191	14.4615	1.0547
36.7473	15.9231	1.1067
36.7756	15.7692	1.1014
36.8039	14.6154	1.0603
36.8321	16.2308	1.1174
36.8604	17.0000	1.1435
36.8887	15.6154	1.0960
36.9169	16.7692	1.1358
36.9452	15.6154	1.0960
36.9735	12.6154	0.9851
37.0017	15.4615	1.0906
37.0300	14.6923	1.0631
37.0583	16.0769	1.1121
37.0865	14.6923	1.0631
37.1148	15.5385	1.0933
37.1431	15.5385	1.0933
37.1713	17.3846	1.1564
37.1996	15.6923	1.0987
37.2279	15.8462	1.1041
37.2561	14.8462	1.0686
37.2844	15.6923	1.0987
37.3127	13.6154	1.0234
37.3409	15.9231	1.1067
37.3692	14.3077	1.0491
37.3975	14.5385	1.0575
37.4257	14.7692	1.0659
37.4540	14.6154	1.0603
37.4823	18.2308	1.1842
37.5105	15.7692	1.1014
37.5388	14.9231	1.0714
37.5670	15.2308	1.0824
37.5953	13.4615	1.0176
37.6236	14.3077	1.0491
37.6518	15.6154	1.0960
37.6801	16.3846	1.1227
37.7084	15.5385	1.0933
37.7366	16.0000	1.1094
37.7649	16.9231	1.1410
37.7932	15.1538	1.0797
37.8214	15.2308	1.0824
37.8497	13.1538	1.0059
37.8780	16.2308	1.1174
37.9062	17.5385	1.1615
37.9345	14.5385	1.0575
37.9628	15.8462	1.1041
37.9910	15.3077	1.0851
38.0193	15.6154	1.0960
38.0476	16.3077	1.1200
38.0758	17.0000	1.1435
38.1041	18.5385	1.1942
38.1324	18.2308	1.1842
38.1606	18.2308	1.1842
38.1889	18.6923	1.1991
38.2172	18.0000	1.1767
38.2454	18.7407	1.1782
38.2737	19.0370	1.1875
38.3020	17.5556	1.1404
38.3302	15.9259	1.0861
38.3585	19.4815	1.2013
38.3867	17.6296	1.1428
38.4150	19.1852	1.1921
38.4433	20.1481	1.2217
38.4715	19.7037	1.2081
38.4998	20.9630	1.2461
38.5281	22.3704	1.2873
38.5563	23.3333	1.3147
38.5846	24.0000	1.3333
38.6129	26.3704	1.3976
38.6411	25.2593	1.3679
38.6694	27.3333	1.4229
38.6977	28.8148	1.4610
38.7259	28.7407	1.4591
38.7542	28.0741	1.4421
38.7825	29.4074	1.4759
38.8107	28.4444	1.4515
38.8390	29.3333	1.4741
38.8673	31.9259	1.5378
38.8955	30.2963	1.4981
38.9238	33.3333	1.5713
38.9521	33.5556	1.5766
38.9803	36.4444	1.6430
39.0086	38.1429	1.6506
39.0369	44.9286	1.7914
39.0651	45.2857	1.7985
39.0934	45.7143	1.8070
39.1217	51.5714	1.9193
39.1499	58.4286	2.0429
39.1782	63.1429	2.1237
39.2064	64.2857	2.1429
39.2347	71.7143	2.2633
39.2630	78.2857	2.3647
39.2912	88.9286	2.5203
39.3195	104.8571	2.7367
39.3478	110.7143	2.8121
39.3760	118.2857	2.9067
39.4043	132.0000	3.0706
39.4326	149.0000	3.2623
39.4608	171.4286	3.4993
39.4891	178.7143	3.5729
39.5174	192.0000	3.7033
39.5456	211.5714	3.8874
39.5739	236.6429	4.1113
39.6022	242.9286	4.1656
39.6304	254.5714	4.2642
39.6587	276.5000	4.4441
39.6870	274.7857	4.4303
39.7152	273.2857	4.4182
39.7435	286.2143	4.5215
39.7718	272.1429	4.4089
39.8000	262.7143	4.3319
39.8283	256.1429	4.2774
39.8566	233.7857	4.0864
39.8848	215.2143	3.9208
39.9131	195.2143	3.7342
39.9414	170.2143	3.4869
39.9696	147.3571	3.2443
39.9979	127.7857	3.0212
40.0262	109.8571	2.8012
40.0544	96.4286	2.6245
40.0827	85.6429	2.4733
40.1109	75.9286	2.3288
40.1392	69.1429	2.2223
40.1675	62.6429	2.1153
40.1957	53.7143	1.9588
40.2240	49.0000	1.8708
40.2523	43.5714	1.7642
40.2805	38.0000	1.6475
40.3088	38.5000	1.6583
40.3371	32.2857	1.5186
40.3653	31.5714	1.5017
40.3936	28.6429	1.4304
40.4219	29.7143	1.4569
40.4501	26.7857	1.3832
40.4784	24.1429	1.3132
40.5067	24.7143	1.3286
40.5349	23.6429	1.2995
40.5632	21.3571	1.2351
40.5915	20.5000	1.2101
40.6197	21.9286	1.2515
40.6480	20.2857	1.2037
40.6763	18.5000	1.1495
40.7045	19.6429	1.1845
40.7328	19.7143	1.1867
40.7611	17.5000	1.1180
40.7893	17.3571	1.1135
40.8176	18.9286	1.1628
40.8459	18.5714	1.1518
40.8741	16.4286	1.0833
40.9024	16.8571	1.0973
40.9306	15.9286	1.0667
40.9589	17.7857	1.1271
40.9872	16.2857	1.0785
41.0154	18.3571	1.1451
41.0437	17.6429	1.1226
41.0720	16.1429	1.0738
41.1002	14.9286	1.0326
41.1285	16.2143	1.0762
41.1568	15.2857	1.0449
41.1850	14.5714	1.0202
41.2133	14.3571	1.0127
41.2416	13.4286	0.9794
41.2698	16.7143	1.0926
41.2981	15.2857	1.0449
41.3264	15.2857	1.0449
41.3546	13.3571	0.9768
41.3829	14.6429	1.0227
41.4112	14.2857	1.0102
41.4394	15.7143	1.0595
41.4677	14.6429	1.0227
41.4960	13.2143	0.9715
41.5242	13.2143	0.9715
41.5525	15.2857	1.0449
41.5808	15.0000	1.0351
41.6090	14.3571	1.0127
41.6373	14.5714	1.0202
41.6656	14.4286	1.0152
41.6938	12.2143	0.9340
41.7221	15.2857	1.0449
41.7504	14.7857	1.0277
41.7786	13.6429	0.9872
41.8069	14.9286	1.0326
41.8351	12.1429	0.9313
41.8634	14.2143	1.0076
41.8917	14.0000	1.0000
41.9199	12.3571	0.9395
41.9482	16.0000	1.0690
41.9765	13.5000	0.9820
42.0047	13.3571	0.9768
42.0330	12.8571	0.9583
42.0613	13.5714	0.9846
42.0895	13.8571	0.9949
42.1178	12.2143	0.9340
42.1461	15.5714	1.0546
42.1743	12.8571	0.9583
42.2026	13.0000	0.9636
42.2309	12.7143	0.9530
42.2591	13.0714	0.9663
42.2874	14.3571	1.0127
42.3157	14.3571	1.0127
42.3439	12.9286	0.9610
42.3722	12.0714	0.9286
42.4005	13.8571	0.9949
42.4287	13.5714	0.9846
42.4570	13.7143	0.9897
42.4853	12.5000	0.9449
42.5135	12.2857	0.9368
42.5418	14.5000	1.0177
42.5701	13.4286	0.9794
42.5983	13.7931	0.9753
42.6266	13.3793	0.9606
42.6548	12.9655	0.9456
42.6831	12.4828	0.9278
42.7114	14.0000	0.9826
42.7396	12.0000	0.9097
42.7679	11.7931	0.9018
42.7962	13.1724	0.9531
42.8244	13.9310	0.9802
42.8527	12.8276	0.9406
42.8810	13.6552	0.9704
42.9092	13.1724	0.9531
42.9375	12.0690	0.9123
42.9658	12.2069	0.9175
42.9940	10.6897	0.8586
43.0223	14.0690	0.9850
43.0506	13.5172	0.9655
43.0788	12.3448	0.9227
43.1071	10.8276	0.8641
43.1354	15.4483	1.0322
43.1636	12.6207	0.9329
43.1919	14.2069	0.9898
43.2202	12.0000	0.9097
43.2484	11.9310	0.9071
43.2767	14.1379	0.9874
43.3050	12.4138	0.9253
43.3332	11.7241	0.8992
43.3615	11.3793	0.8859
43.3898	10.6897	0.8586
43.4180	13.2000	0.9381
43.4463	13.7333	0.9568
43.4745	12.1333	0.8994
43.5028	13.4000	0.9452
43.5311	11.0000	0.8563
43.5593	13.4000	0.9452
43.5876	12.8000	0.9238
43.6159	12.2000	0.9018
43.6441	11.2667	0.8667
43.6724	13.8667	0.9615
43.7007	12.2000	0.9018
43.7289	12.8667	0.9262
43.7572	10.7333	0.8459
43.7855	11.1333	0.8615
43.8137	12.8667	0.9262
43.8420	11.0667	0.8589
43.8703	13.2000	0.9381
43.8985	13.2667	0.9404
43.9268	11.2667	0.8667
43.9551	11.7333	0.8844
43.9833	10.0000	0.8165
44.0116	10.3333	0.8300
44.0399	11.9333	0.8919
44.0681	11.7333	0.8844
44.0964	11.0667	0.8589
44.1247	11.4667	0.8743
44.1529	11.0667	0.8589
44.1812	11.4667	0.8743
44.2095	11.5333	0.8769
44.2377	10.0667	0.8192
44.2660	10.0000	0.8165
44.2943	11.2667	0.8667
44.3225	11.9333	0.8919
44.3508	12.6000	0.9165
44.3790	10.6667	0.8433
44.4073	9.8000	0.8083
44.4356	9.0000	0.7746
44.4638	10.6667	0.8433
44.4921	10.7333	0.8459
44.5204	11.4667	0.8743
44.5486	11.0000	0.8563
44.5769	11.1333	0.8615
44.6052	10.1333	0.8219
44.6334	10.8667	0.8511
44.6617	11.3333	0.8692
44.6900	11.7333	0.8844
44.7182	10.8000	0.8485
44.7465	10.5333	0.8380
44.7748	11.3333	0.8692
44.8030	11.1333	0.8615
44.8313	11.7333	0.8844
44.8596	10.0000	0.8165
44.8878	11.8667	0.8894
44.9161	11.8667	0.8894
44.9444	10.4667	0.8353
44.9726	10.6667	0.8433
45.0009	11.4667	0.8743
45.0292	10.0000	0.8165
45.0574	11.5333	0.8769
45.0857	10.1333	0.8219
45.1140	10.4667	0.8353
45.1422	11.5333	0.8769
45.1705	10.6667	0.8433
45.1987	10.4000	0.8327
45.2270	9.9333	0.8138
45.2553	10.6667	0.8433
45.2835	10.5333	0.8380
45.3118	11.0000	0.8563
45.3401	11.0667	0.8589
45.3683	10.4000	0.8327
45.3966	10.9333	0.8537
45.4249	10.2000	0.8246
45.4531	10.6667	0.8433
45.4814	9.9333	0.8138
45.5097	12.5333	0.9141
45.5379	10.6667	0.8433
45.5662	11.2667	0.8667
45.5945	10.9333	0.8537
45.6227	11.2000	0.8641
45.6510	11.2000	0.8641
45.6793	10.2000	0.8246
45.7075	11.6000	0.8794
45.7358	10.6667	0.8433
45.7641	11.3333	0.8692
45.7923	10.2000	0.8246
45.8206	10.6667	0.8433
45.8489	10.2667	0.8273
45.8771	12.1333	0.8994
45.9054	11.6667	0.8819
45.9337	9.1333	0.7803
45.9619	11.0000	0.8563
45.9902	10.6667	0.8433
46.0184	10.4000	0.8327
46.0467	10.9333	0.8537
46.0750	10.2000	0.8246
46.1032	10.8667	0.8511
46.1315	9.9333	0.8138
46.1598	11.1333	0.8615
46.1880	11.3333	0.8692
46.2163	9.8667	0.8110
46.2446	9.9333	0.8138
46.2728	8.8000	0.7659
46.3011	10.3333	0.8300
46.3294	11.2667	0.8667
46.3576	10.4000	0.8327
46.3859	11.4000	0.8718
46.4142	8.4000	0.7483
46.4424	10.1333	0.8219
46.4707	10.1333	0.8219
46.4990	11.2667	0.8667
46.5272	9.5333	0.7972
46.5555	8.7333	0.7630
46.5838	9.6129	0.7875
46.6120	9.6129	0.7875
46.6403	9.6129	0.7875
46.6686	9.9355	0.8006
46.6968	12.1935	0.8870
46.7251	11.4839	0.8608
46.7534	10.4516	0.8212
46.7816	11.2903	0.8535
46.8099	9.9355	0.8006
46.8382	8.5806	0.7440
46.8664	8.5806	0.7440
46.8947	10.6452	0.8287
46.9229	10.0000	0.8032
46.9512	10.3226	0.8161
46.9795	10.3226	0.8161
47.0077	9.6774	0.7902
47.0360	10.8387	0.8362
47.0643	10.1290	0.8084
47.0925	9.9355	0.8006
47.1208	9.1613	0.7688
47.1491	9.2258	0.7715
47.1773	9.4194	0.7796
47.2056	10.0645	0.8058
47.2339	8.5806	0.7440
47.2621	9.0323	0.7634
47.2904	9.0323	0.7634
47.3187	10.0000	0.8032
47.3469	10.7742	0.8337
47.3752	9.4839	0.7822
47.4035	11.6129	0.8656
47.4317	10.0000	0.8032
47.4600	9.8750	0.7856
47.4883	8.8125	0.7421
47.5165	9.6875	0.7781
47.5448	10.0625	0.7930
47.5731	10.9375	0.8268
47.6013	8.5000	0.7289
47.6296	10.0625	0.7930
47.6579	10.9375	0.8268
47.6861	9.9375	0.7881
47.7144	9.5000	0.7706
47.7426	9.8750	0.7856
47.7709	9.6250	0.7756
47.7992	9.3750	0.7655
47.8274	9.3750	0.7655
47.8557	9.3750	0.7655
47.8840	9.6250	0.7756
47.9122	9.4375	0.7680
47.9405	11.1875	0.8362
47.9688	10.0000	0.7906
47.9970	9.3750	0.7655
48.0253	10.0000	0.7906
48.0536	9.1250	0.7552
48.0818	9.5000	0.7706
48.1101	9.8750	0.7856
48.1384	9.0000	0.7500
48.1666	9.8125	0.7831
48.1949	10.1250	0.7955
48.2232	11.3125	0.8409
48.2514	10.2500	0.8004
48.2797	10.1875	0.7979
48.3080	9.5625	0.7731
48.3362	9.1250	0.7552
48.3645	10.5000	0.8101
48.3928	9.5625	0.7731
48.4210	9.0000	0.7500
48.4493	10.0000	0.7906
48.4776	8.9375	0.7474
48.5058	9.3750	0.7655
48.5341	8.6875	0.7369
48.5624	9.0625	0.7526
48.5906	9.0000	0.7500
48.6189	10.0000	0.7906
48.6471	9.0000	0.7500
48.6754	9.3125	0.7629
48.7037	9.5000	0.7706
48.7319	10.2500	0.8004
48.7602	10.1875	0.7979
48.7885	10.3750	0.8053
48.8167	9.9375	0.7881
48.8450	11.0625	0.8315
48.8733	10.2500	0.8004
48.9015	9.4375	0.7680
48.9298	9.8750	0.7856
48.9581	9.4375	0.7680
48.9863	8.7500	0.7395
49.0146	11.0000	0.8292
49.0429	9.8750	0.7856
49.0711	10.9375	0.8268
49.0994	8.4375	0.7262
49.1277	9.6250	0.7756
49.1559	9.8125	0.7831
49.1842	8.6875	0.7369
49.2125	8.9375	0.7474
49.2407	10.2500	0.8004
49.2690	10.0625	0.7930
49.2973	8.0000	0.7071
49.3255	10.3750	0.8053
49.3538	9.4375	0.7680
49.3821	8.9375	0.7474
49.4103	8.6250	0.7342
49.4386	8.6875	0.7369
49.4668	7.5625	0.6875
49.4951	9.6250	0.7756
49.5234	8.6875	0.7369
49.5516	9.5000	0.7706
49.5799	7.8750	0.7016
49.6082	9.1875	0.7578
49.6364	7.8125	0.6988
49.6647	8.1875	0.7153
49.6930	7.7500	0.6960
49.7212	8.8750	0.7448
49.7495	9.6250	0.7756
49.7778	10.3750	0.8053
49.8060	8.6875	0.7369
49.8343	9.1875	0.7578
49.8626	8.8750	0.7448
49.8908	10.1250	0.7955
49.9191	8.6875	0.7369
49.9474	10.7500	0.8197
49.9756	8.0000	0.7071
50.0039	10.4375	0.8077
50.0322	9.8125	0.7831
50.0604	8.7500	0.7395
50.0887	10.3125	0.8028
50.1170	10.0000	0.7906
50.1452	9.4375	0.7680
50.1735	8.5000	0.7289
50.2018	9.1250	0.7552
50.2300	9.5000	0.7706
50.2583	10.0625	0.7930
50.2865	9.8125	0.7831
50.3148	9.1875	0.7578
50.3431	9.5625	0.7731
50.3713	11.4375	0.8455
50.3996	8.5000	0.7289
50.4279	9.6875	0.7781
50.4561	9.1875	0.7578
50.4844	10.0625	0.7930
50.5127	8.5625	0.7315
50.5409	9.8182	0.7714
50.5692	7.2121	0.6611
50.5975	9.9394	0.7761
50.6257	8.6667	0.7247
50.6540	9.5758	0.7618
50.6823	7.6970	0.6830
50.7105	9.2121	0.7472
50.7388	8.4848	0.7171
50.7671	8.7273	0.7273
50.7953	8.3636	0.7120
50.8236	9.9394	0.7761
50.8519	8.6061	0.7222
50.8801	9.9394	0.7761
50.9084	8.5455	0.7197
50.9367	8.6061	0.7222
50.9649	8.6667	0.7247
50.9932	10.5455	0.7994
51.0215	9.3333	0.7521
51.0497	8.1212	0.7016
51.0780	8.7273	0.7273
51.1063	9.5758	0.7618
51.1345	8.7879	0.7298
51.1628	8.1818	0.7042
51.1910	9.8182	0.7714
51.2193	9.7576	0.7690
51.2476	9.2121	0.7472
51.2758	9.5758	0.7618
51.3041	8.4242	0.7145
51.3324	8.4242	0.7145
51.3606	10.1212	0.7832
51.3889	9.0909	0.7423
51.4172	8.6061	0.7222
51.4454	8.6061	0.7222
51.4737	9.0588	0.7300
51.5020	7.8824	0.6809
51.5302	8.7647	0.7180
51.5585	9.8235	0.7602
51.5868	8.1765	0.6935
51.6150	9.7647	0.7579
51.6433	7.9412	0.6835
51.6716	8.4706	0.7059
51.6998	8.8235	0.7204
51.7281	9.7647	0.7579
51.7564	8.9412	0.7252
51.7846	9.3529	0.7417
51.8129	9.1176	0.7323
51.8412	8.3529	0.7010
51.8694	10.2941	0.7782
51.8977	9.1176	0.7323
51.9260	9.6471	0.7533
51.9542	9.2353	0.7371
51.9825	9.0588	0.7300
52.0107	8.5294	0.7083
52.0390	8.2941	0.6985
52.0673	8.1176	0.6910
52.0955	8.8235	0.7204
52.1238	8.8235	0.7204
52.1521	9.3529	0.7417
52.1803	8.0000	0.6860
52.2086	9.5882	0.7510
52.2369	8.3529	0.7010
52.2651	10.7059	0.7936
52.2934	9.6471	0.7533
52.3217	9.0000	0.7276
52.3499	9.4118	0.7441
52.3782	7.7059	0.6733
52.4065	9.7059	0.7556
52.4347	9.1765	0.7347
52.4630	10.1765	0.7737
52.4913	8.3529	0.7010
52.5195	8.4706	0.7059
52.5478	10.0588	0.7692
52.5761	9.4706	0.7464
52.6043	8.4118	0.7034
52.6326	8.7647	0.7180
52.6609	8.4706	0.7059
52.6891	10.0588	0.7692
52.7174	8.8824	0.7228
52.7457	8.5294	0.7083
52.7739	9.4706	0.7464
52.8022	8.4706	0.7059
52.8305	8.7647	0.7180
52.8587	8.7647	0.7180
52.8870	8.1176	0.6910
52.9152	8.4118	0.7034
52.9435	9.4118	0.7441
52.9718	8.7647	0.7180
53.0000	9.5294	0.7487
53.0283	8.3529	0.7010
53.0566	9.2353	0.7371
53.0848	9.1176	0.7323
53.1131	8.4118	0.7034
53.1414	9.4706	0.7464
53.1696	8.2941	0.6985
53.1979	9.3529	0.7417
53.2262	8.0000	0.6860
53.2544	8.7647	0.7180
53.2827	9.8824	0.7624
53.3110	9.4706	0.7464
53.3392	8.7059	0.7156
53.3675	9.2353	0.7371
53.3958	8.0000	0.6860
53.4240	9.2353	0.7371
53.4523	8.6471	0.7132
53.4806	8.5294	0.7083
53.5088	8.7059	0.7156
53.5371	9.4118	0.7441
53.5654	8.8235	0.7204
53.5936	9.1176	0.7323
53.6219	9.1176	0.7323
53.6502	9.8824	0.7624
53.6784	9.7059	0.7556
53.7067	11.2353	0.8130
53.7349	11.0588	0.8065
53.7632	9.7059	0.7556
53.7915	9.6471	0.7533
53.8197	10.2941	0.7782
53.8480	10.2353	0.7759
53.8763	9.9412	0.7647
53.9045	10.5882	0.7892
53.9328	9.8824	0.7624
53.9611	8.2353	0.6960
53.9893	8.3529	0.7010
54.0176	7.6471	0.6707
54.0459	9.9412	0.7647
54.0741	9.5294	0.7487
54.1024	9.7059	0.7556
54.1307	7.8824	0.6809
54.1589	9.1176	0.7323
54.1872	10.0588	0.7692
54.2155	10.2353	0.7759
54.2437	8.4706	0.7059
54.2720	8.1765	0.6935
54.3003	8.5294	0.7083
54.3285	8.8824	0.7228
54.3568	9.1765	0.7347
54.3851	8.1765	0.6935
54.4133	8.5294	0.7083
54.4416	8.2941	0.6985
54.4699	7.9412	0.6835
54.4981	9.2353	0.7371
54.5264	8.4571	0.6952
54.5546	8.4571	0.6952
54.5829	8.6286	0.7022
54.6112	8.5143	0.6975
54.6394	9.2571	0.7273
54.6677	7.2000	0.6414
54.6960	8.0571	0.6785
54.7242	7.7714	0.6664
54.7525	9.0286	0.7183
54.7808	8.8000	0.7091
54.8090	8.1714	0.6833
54.8373	8.5143	0.6975
54.8656	9.6571	0.7429
54.8938	9.7143	0.7451
54.9221	9.3143	0.7296
54.9504	9.0857	0.7205
54.9786	8.9143	0.7137
55.0069	8.4000	0.6928
55.0352	9.4857	0.7362
55.0634	9.3714	0.7318
55.0917	8.6286	0.7022
55.1200	9.0286	0.7183
55.1482	9.9429	0.7538
55.1765	10.1714	0.7624
55.2048	8.9143	0.7137
55.2330	8.1714	0.6833
55.2613	7.8857	0.6713
55.2896	9.2571	0.7273
55.3178	9.9429	0.7538
55.3461	8.8000	0.7091
55.3744	9.5429	0.7384
55.4026	10.6286	0.7793
55.4309	9.4286	0.7340
55.4591	9.6571	0.7429
55.4874	10.0000	0.7559
55.5157	8.5000	0.6872
55.5439	10.2222	0.7536
55.5722	9.7222	0.7349
55.6005	8.5000	0.6872
55.6287	9.3889	0.7222
55.6570	9.1667	0.7136
55.6853	9.2222	0.7158
55.7135	10.3889	0.7597
55.7418	10.2222	0.7536
55.7701	9.7778	0.7370
55.7983	9.8889	0.7412
55.8266	11.4444	0.7974
55.8549	9.5556	0.7286
55.8831	10.1111	0.7495
55.9114	10.2222	0.7536
55.9397	10.6111	0.7678
55.9679	10.7778	0.7738
55.9962	10.3333	0.7577
56.0245	9.3333	0.7201
56.0527	10.5000	0.7638
56.0810	11.4444	0.7974
56.1093	11.6667	0.8051
56.1375	10.8333	0.7758
56.1658	10.8333	0.7758
56.1941	11.4444	0.7974
56.2223	11.7222	0.8070
56.2506	12.2778	0.8259
56.2788	12.0556	0.8184
56.3071	11.6111	0.8032
56.3354	12.3889	0.8296
56.3636	13.2222	0.8571
56.3919	15.1111	0.9162
56.4202	13.1667	0.8553
56.4484	14.3889	0.8941
56.4767	14.7222	0.9044
56.5050	14.3889	0.8941
56.5332	16.2778	0.9510
56.5615	16.1111	0.9461
56.5898	17.6667	0.9907
56.6180	17.6667	0.9907
56.6463	20.2222	1.0599
56.6746	21.2778	1.0872
56.7028	21.8333	1.1013
56.7311	21.8333	1.1013
56.7594	24.9444	1.1772
56.7876	24.3333	1.1627
56.8159	25.7222	1.1954
56.8442	29.6111	1.2826
56.8724	27.5000	1.2360
56.9007	34.2222	1.3789
56.9290	34.7778	1.3900
56.9572	34.6111	1.3867
56.9855	36.7778	1.4294
57.0138	41.5000	1.5184
57.0420	40.5556	1.5010
57.0703	43.1111	1.5476
57.0986	47.8333	1.6302
57.1268	47.9444	1.6320
57.1551	51.8333	1.6969
57.1833	51.7778	1.6960
57.2116	55.6667	1.7586
57.2399	51.3889	1.6897
57.2681	58.7222	1.8062
57.2964	59.1111	1.8122
57.3247	59.5556	1.8190
57.3529	61.6111	1.8501
57.3812	58.4444	1.8019
57.4095	62.0556	1.8568
57.4377	62.9444	1.8700
57.4660	59.8889	1.8241
57.4943	61.3333	1.8459
57.5225	55.1667	1.7507
57.5508	57.3889	1.7856
57.5791	52.8889	1.7141
57.6073	52.4444	1.7069
57.6356	48.9444	1.6490
57.6639	46.7222	1.6111
57.6921	42.8333	1.5426
57.7204	40.6111	1.5021
57.7487	41.0556	1.5103
57.7769	35.7222	1.4087
57.8052	33.3333	1.3608
57.8335	31.7778	1.3287
57.8617	29.0556	1.2705
57.8900	27.4444	1.2348
57.9183	26.1667	1.2057
57.9465	22.6667	1.1222
57.9748	22.2778	1.1125
58.0030	20.3889	1.0643
58.0313	19.0000	1.0274
58.0596	17.5000	0.9860
58.0878	17.5000	0.9860
58.1161	15.3333	0.9230
58.1444	16.1667	0.9477
58.1726	13.7222	0.8731
58.2009	14.1111	0.8854
58.2292	13.6667	0.8714
58.2574	12.3889	0.8296
58.2857	13.8889	0.8784
58.3140	12.0556	0.8184
58.3422	11.3333	0.7935
58.3705	13.0556	0.8517
58.3988	11.6667	0.8051
58.4270	12.2778	0.8259
58.4553	11.6667	0.8051
58.4836	10.3784	0.7490
58.5118	10.2162	0.7431
58.5401	11.0811	0.7739
58.5684	10.8649	0.7663
58.5966	8.9730	0.6964
58.6249	8.9189	0.6943
58.6532	10.3243	0.7470
58.6814	10.0000	0.7352
58.7097	8.9730	0.6964
58.7380	9.1351	0.7027
58.7662	10.0541	0.7372
58.7945	10.2162	0.7431
58.8227	9.6757	0.7232
58.8510	9.2973	0.7089
58.8793	8.7568	0.6880
58.9075	9.1351	0.7027
58.9358	8.6486	0.6837
58.9641	9.8919	0.7312
58.9923	8.9189	0.6943
59.0206	9.3514	0.7110
59.0489	9.7297	0.7252
59.0771	8.5946	0.6816
59.1054	9.6216	0.7212
59.1337	9.2432	0.7068
59.1619	8.5405	0.6794
59.1902	9.2973	0.7089
59.2185	11.1351	0.7758
59.2467	8.9189	0.6943
59.2750	9.8378	0.7292
59.3033	9.6757	0.7232
59.3315	9.1351	0.7027
59.3598	7.5676	0.6396
59.3881	7.9459	0.6554
59.4163	7.4595	0.6350
59.4446	10.4324	0.7509
59.4729	9.0270	0.6985
59.5011	6.8108	0.6068
59.5294	8.6842	0.6761
59.5577	8.5789	0.6720
59.5859	8.3158	0.6616
59.6142	9.3684	0.7022
59.6425	8.6842	0.6761
59.6707	6.8947	0.6024
59.6990	9.3684	0.7022
59.7272	8.6316	0.6740
59.7555	7.7368	0.6381
59.7838	8.3684	0.6637
59.8120	8.7368	0.6781
59.8403	8.8947	0.6842
59.8686	9.4211	0.7042
59.8968	9.0526	0.6903
59.9251	9.6842	0.7139
59.9534	7.5263	0.6294
59.9816	8.7368	0.6781
60.0099	9.5263	0.7081
60.0382	8.6842	0.6761
60.0664	7.8421	0.6425
60.0947	7.4737	0.6272
60.1230	7.5789	0.6316
60.1512	7.5263	0.6294
60.1795	9.6842	0.7139
60.2078	9.1053	0.6923
60.2360	8.7895	0.6801
60.2643	8.4211	0.6657
60.2926	7.3158	0.6205
60.3208	7.7895	0.6403
60.3491	9.2632	0.6982
60.3774	8.7368	0.6781
60.4056	8.8947	0.6842
60.4339	10.3158	0.7368
60.4622	8.4737	0.6678
60.4904	8.8947	0.6842
60.5187	8.7895	0.6801
60.5469	9.0526	0.6903
60.5752	8.0526	0.6510
60.6035	8.5789	0.6720
60.6317	7.3158	0.6205
60.6600	9.0526	0.6903
60.6883	8.3684	0.6637
60.7165	7.6316	0.6338
60.7448	7.1053	0.6115
60.7731	8.0526	0.6510
60.8013	8.6316	0.6740
60.8296	8.4737	0.6678
60.8579	8.0000	0.6489
60.8861	7.3158	0.6205
60.9144	7.8421	0.6425
60.9427	8.8947	0.6842
60.9709	8.9474	0.6862
60.9992	9.6842	0.7139
61.0275	8.4211	0.6657
61.0557	8.7368	0.6781
61.0840	7.8421	0.6425
61.1123	7.6316	0.6338
61.1405	7.3684	0.6227
61.1688	8.6842	0.6761
61.1971	7.8421	0.6425
61.2253	7.4211	0.6250
61.2536	7.4737	0.6272
61.2819	7.4737	0.6272
61.3101	8.1579	0.6553
61.3384	7.1053	0.6115
61.3667	8.1579	0.6553
61.3949	8.3684	0.6637
61.4232	7.6842	0.6359
61.4514	8.4211	0.6657
61.4797	7.5263	0.6294
61.5080	7.5789	0.6316
61.5362	7.7368	0.6381
61.5645	9.5789	0.7100
61.5928	7.1579	0.6138
61.6210	8.7368	0.6781
61.6493	6.9474	0.6047
61.6776	7.5789	0.6316
61.7058	7.4211	0.6250
61.7341	9.4211	0.7042
61.7624	7.6316	0.6338
61.7906	7.2632	0.6183
61.8189	7.5789	0.6316
61.8472	8.3158	0.6616
61.8754	7.0000	0.6070
61.9037	7.7368	0.6381
61.9320	7.0526	0.6093
61.9602	7.8947	0.6446
61.9885	7.9474	0.6467
62.0168	8.7368	0.6781
62.0450	9.1579	0.6943
62.0733	8.0000	0.6489
62.1016	8.0526	0.6510
62.1298	6.7368	0.5955
62.1581	7.0000	0.6070
62.1864	8.1053	0.6531
62.2146	7.5263	0.6294
62.2429	7.8421	0.6425
62.2711	8.2632	0.6595
62.2994	8.1053	0.6531
62.3277	9.1053	0.6923
62.3559	8.3158	0.6616
62.3842	7.8421	0.6425
62.4125	8.2632	0.6595
62.4407	9.3158	0.7002
62.4690	7.6410	0.6260
62.4973	9.2308	0.6880
62.5255	7.7949	0.6322
62.5538	7.4872	0.6196
62.5821	7.3846	0.6154
62.6103	7.4872	0.6196
62.6386	8.3590	0.6547
62.6669	8.7179	0.6686
62.6951	8.3590	0.6547
62.7234	7.2821	0.6111
62.7517	8.2564	0.6507
62.7799	8.5128	0.6607
62.8082	9.4872	0.6975
62.8365	9.2308	0.6880
62.8647	8.6154	0.6647
62.8930	7.2821	0.6111
62.9213	8.6667	0.6667
62.9495	8.0513	0.6426
62.9778	8.0000	0.6405
63.0061	7.4359	0.6175
63.0343	8.4615	0.6587
63.0626	7.4359	0.6175
63.0908	8.4103	0.6567
63.1191	8.7179	0.6686
63.1474	7.9487	0.6385
63.1756	8.2051	0.6487
63.2039	8.0513	0.6426
63.2322	7.6923	0.6281
63.2604	9.0769	0.6823
63.2887	7.5897	0.6239
63.3170	8.4103	0.6567
63.3452	8.0000	0.6405
63.3735	7.4872	0.6196
63.4018	6.7692	0.5892
63.4300	6.5641	0.5802
63.4583	8.2564	0.6507
63.4866	7.1795	0.6068
63.5148	7.2821	0.6111
63.5431	7.8462	0.6343
63.5714	7.8500	0.6265
63.5996	9.4500	0.6874
63.6279	8.0976	0.6285
63.6562	7.5610	0.6073
63.6844	8.0976	0.6285
63.7127	7.3171	0.5974
63.7410	7.7561	0.6151
63.7692	7.4634	0.6034
63.7975	7.7561	0.6151
63.8258	8.5366	0.6453
63.8540	8.0976	0.6285
63.8823	7.1707	0.5914
63.9106	7.9512	0.6228
63.9388	8.6829	0.6508
63.9671	8.7805	0.6545
63.9953	7.9024	0.6209
64.0236	8.5854	0.6471
64.0519	8.0000	0.6247
64.0801	7.5610	0.6073
64.1084	8.0488	0.6266
64.1367	7.7073	0.6132
64.1649	7.6098	0.6093
64.1932	7.1707	0.5914
64.2215	7.4146	0.6014
64.2497	7.1220	0.5894
64.2780	8.8780	0.6581
64.3063	7.9024	0.6209
64.3345	7.5122	0.6053
64.3628	8.0488	0.6266
64.3911	6.8293	0.5772
64.4193	7.4634	0.6034
64.4476	6.5366	0.5647
64.4759	7.1220	0.5894
64.5041	7.7561	0.6151
64.5324	7.1220	0.5894
64.5607	7.5610	0.6073
64.5889	7.9512	0.6228
64.6172	8.3902	0.6398
64.6455	7.5610	0.6073
64.6737	8.0488	0.6266
64.7020	6.6829	0.5710
64.7303	7.9024	0.6209
64.7585	8.9268	0.6599
64.7868	8.1905	0.6245
64.8150	7.4884	0.5902
64.8433	9.5814	0.6676
64.8716	6.5116	0.5503
64.8998	7.7209	0.5993
64.9281	7.9535	0.6082
64.9564	7.7674	0.6011
64.9846	7.3953	0.5865
65.0129	6.6047	0.5543
65.0412	8.1395	0.6153
65.0694	7.7209	0.5993
65.0977	7.4419	0.5883
65.1260	7.3023	0.5828
65.1542	8.1860	0.6170
65.1825	8.5116	0.6292
65.2108	7.1163	0.5753
65.2390	9.5814	0.6676
65.2673	7.2558	0.5809
65.2956	9.2093	0.6545
65.3238	7.1628	0.5772
65.3521	7.1163	0.5753
65.3804	6.5581	0.5523
65.4086	7.8605	0.6047
65.4369	7.4419	0.5883
65.4652	7.3023	0.5828
65.4934	7.7674	0.6011
65.5217	7.7674	0.6011
65.5500	7.3488	0.5846
65.5782	7.2558	0.5809
65.6065	8.2791	0.6205
65.6348	7.9070	0.6064
65.6630	8.0000	0.6100
65.6913	7.9070	0.6064
65.7195	7.6279	0.5956
65.7478	8.7907	0.6394
65.7761	7.9070	0.6064
65.8043	6.7442	0.5601
65.8326	7.6744	0.5975
65.8609	7.7209	0.5993
65.8891	7.9070	0.6064
65.9174	6.7442	0.5601
65.9457	6.8837	0.5658
65.9739	7.5000	0.5839
66.0022	7.9091	0.5996
66.0305	7.2889	0.5692
66.0587	6.8889	0.5533
66.0870	7.5556	0.5795
66.1153	7.5556	0.5795
66.1435	7.4667	0.5761
66.1718	7.5111	0.5778
66.2001	7.3778	0.5726
66.2283	7.1111	0.5622
66.2566	6.8000	0.5497
66.2849	7.7778	0.5879
66.3131	8.0000	0.5963
66.3414	7.7778	0.5879
66.3697	8.4889	0.6142
66.3979	7.8667	0.5913
66.4262	7.5111	0.5778
66.4545	7.9111	0.5930
66.4827	8.8889	0.6285
66.5110	7.5556	0.5795
66.5392	8.5333	0.6158
66.5675	7.8222	0.5896
66.5958	7.5111	0.5778
66.6240	7.0667	0.5604
66.6523	7.3778	0.5726
66.6806	8.4444	0.6126
66.7088	7.4667	0.5761
66.7371	7.6444	0.5829
66.7654	7.5556	0.5795
66.7936	7.2444	0.5674
66.8219	9.2444	0.6410
66.8502	7.9556	0.5946
66.8784	7.3333	0.5709
66.9067	8.7111	0.6222
66.9350	7.7778	0.5879
66.9632	6.6667	0.5443
66.9915	7.2889	0.5692
67.0198	8.0000	0.5963
67.0480	7.6889	0.5846
67.0763	8.4889	0.6142
67.1046	8.8000	0.6254
67.1328	8.2222	0.6045
67.1611	7.9130	0.5866
67.1894	7.6087	0.5752
67.2176	8.6957	0.6149
67.2459	6.8936	0.5416
67.2742	8.3404	0.5957
67.3024	8.0851	0.5866
67.3307	8.1702	0.5896
67.3589	7.1915	0.5532
67.3872	7.9149	0.5803
67.4155	7.0638	0.5483
67.4437	8.3404	0.5957
67.4720	6.7660	0.5366
67.5003	8.2979	0.5942
67.5285	7.7021	0.5725
67.5568	8.5106	0.6018
67.5851	8.5106	0.6018
67.6133	7.4468	0.5629
67.6416	8.8511	0.6137
67.6699	8.1702	0.5896
67.6981	8.5106	0.6018
67.7264	8.7660	0.6108
67.7547	7.4043	0.5613
67.7829	8.5957	0.6048
67.8112	8.3830	0.5973
67.8395	7.6170	0.5693
67.8677	7.2766	0.5565
67.8960	8.2553	0.5927
67.9243	7.1915	0.5532
67.9525	7.8723	0.5788
67.9808	8.5532	0.6033
68.0091	7.6596	0.5709
68.0373	8.0851	0.5866
68.0656	6.2979	0.5177
68.0939	7.0213	0.5466
68.1221	8.0426	0.5850
68.1504	9.1915	0.6254
68.1787	7.1915	0.5532
68.2069	8.0426	0.5850
68.2352	8.4255	0.5988
68.2634	7.2340	0.5548
68.2917	7.9574	0.5819
68.3200	8.1667	0.5833
68.3482	8.0417	0.5789
68.3765	8.4583	0.5937
68.4048	7.9583	0.5758
68.4330	7.2917	0.5512
68.4613	7.2917	0.5512
68.4896	8.2449	0.5801
68.5178	8.2449	0.5801
68.5461	8.4898	0.5887
68.5744	8.0408	0.5729
68.6026	8.2041	0.5787
68.6309	8.0816	0.5743
68.6592	8.8980	0.6026
68.6874	8.2041	0.5787
68.7157	9.1837	0.6122
68.7440	9.2653	0.6150
68.7722	10.0816	0.6415
68.8005	9.3061	0.6163
68.8288	9.0612	0.6081
68.8570	9.5102	0.6230
68.8853	9.4286	0.6204
68.9136	9.5918	0.6257
68.9418	9.7143	0.6297
68.9701	8.9796	0.6054
68.9984	9.1020	0.6095
69.0266	9.5102	0.6230
69.0549	9.0612	0.6081
69.0831	8.9796	0.6054
69.1114	8.8571	0.6013
69.1397	8.6122	0.5929
69.1679	7.6735	0.5596
69.1962	9.3878	0.6190
69.2245	8.7347	0.5971
69.2527	9.6327	0.6270
69.2810	8.3673	0.5844
69.3093	7.9592	0.5700
69.3375	7.9184	0.5685
69.3658	7.8367	0.5656
69.3941	8.8163	0.5999
69.4223	8.6531	0.5943
69.4506	8.5306	0.5901
69.4789	7.5918	0.5567
69.5071	8.6000	0.5865
69.5354	8.1600	0.5713
69.5637	8.8000	0.5933
69.5919	8.6800	0.5892
69.6202	8.5600	0.5851
69.6485	8.5600	0.5851
69.6767	9.4000	0.6132
69.7050	8.4314	0.5750
69.7333	9.5294	0.6113
69.7615	9.4902	0.6101
69.7898	9.8824	0.6225
69.8181	8.8627	0.5895
69.8463	10.3137	0.6360
69.8746	9.7647	0.6188
69.9028	7.6863	0.5490
69.9311	9.2157	0.6012
69.9594	10.0000	0.6262
69.9876	9.2157	0.6012
70.0159	8.2745	0.5696
70.0442	8.7843	0.5869
70.0724	10.0000	0.6262
70.1007	10.6667	0.6468
70.1290	10.1961	0.6323
70.1572	9.4118	0.6075
70.1855	11.0588	0.6585
70.2138	10.2353	0.6335
70.2420	10.2353	0.6335
70.2703	10.5490	0.6432
70.2986	10.1961	0.6323
70.3268	11.0196	0.6574
70.3551	10.5882	0.6444
70.3834	10.8627	0.6527
70.4116	9.9608	0.6250
70.4399	11.4118	0.6690
70.4682	11.5294	0.6724
70.4964	11.0980	0.6597
70.5247	11.6863	0.6770
70.5530	11.5294	0.6724
70.5812	11.9216	0.6837
70.6095	12.3922	0.6971
70.6378	11.1373	0.6609
70.6660	14.0385	0.7348
70.6943	12.0385	0.6805
70.7226	12.4231	0.6912
70.7508	12.1154	0.6826
70.7791	13.7308	0.7267
70.8073	15.0769	0.7615
70.8356	14.4615	0.7458
70.8639	14.3077	0.7418
70.8921	18.0385	0.8329
70.9204	14.5385	0.7478
70.9487	14.8679	0.7490
70.9769	15.9245	0.7752
71.0052	17.1698	0.8049
71.0335	17.9245	0.8224
71.0617	17.7358	0.8181
71.0900	19.6226	0.8605
71.1183	18.7547	0.8413
71.1465	19.1321	0.8497
71.1748	20.4151	0.8777
71.2031	23.9245	0.9502
71.2313	23.6981	0.9457
71.2596	22.9811	0.9312
71.2879	25.5094	0.9811
71.3161	26.2642	0.9955
71.3444	28.3774	1.0348
71.3727	29.5849	1.0566
71.4009	28.0755	1.0293
71.4292	29.0566	1.0471
71.4575	33.6226	1.1264
71.4857	36.8679	1.1795
71.5140	37.3208	1.1867
71.5423	38.4906	1.2052
71.5705	41.5094	1.2516
71.5988	41.6226	1.2533
71.6270	44.8302	1.3007
71.6553	47.6604	1.3411
71.6836	49.4340	1.3658
71.7118	48.2264	1.3490
71.7401	49.1698	1.3622
71.7684	54.7547	1.4374
71.7966	56.4151	1.4591
71.8249	58.7037	1.4745
71.8532	57.4074	1.4581
71.8814	59.6296	1.4861
71.9097	62.3333	1.5194
71.9380	65.0370	1.5520
71.9662	66.8148	1.5731
71.9945	66.0370	1.5639
72.0228	70.1111	1.6114
72.0510	66.0370	1.5639
72.0793	70.5185	1.6161
72.1076	67.5926	1.5822
72.1358	66.5185	1.5696
72.1641	70.7636	1.6041
72.1924	68.8000	1.5817
72.2206	63.7818	1.5229
72.2489	66.8727	1.5594
72.2772	63.6000	1.5208
72.3054	64.0000	1.5255
72.3337	62.8364	1.5116
72.3620	60.1091	1.4784
72.3902	55.1636	1.4163
72.4185	51.2727	1.3655
72.4468	48.7636	1.3316
72.4750	48.6182	1.3296
72.5033	46.2909	1.2974
72.5315	41.0909	1.2224
72.5598	38.7636	1.1873
72.5881	34.2182	1.1155
72.6163	34.4364	1.1190
72.6446	29.7818	1.0407
72.6729	28.6182	1.0201
72.7011	26.8727	0.9885
72.7294	25.0909	0.9552
72.7577	24.4000	0.9420
72.7859	20.2545	0.8582
72.8142	21.0909	0.8758
72.8425	19.6000	0.8442
72.8707	18.9455	0.8300
72.8990	17.2000	0.7909
72.9273	17.1636	0.7900
72.9555	15.0909	0.7408
72.9838	16.0364	0.7636
73.0121	14.7500	0.7258
73.0403	14.7143	0.7249
73.0686	13.0000	0.6814
73.0969	14.0714	0.7089
73.1251	13.1071	0.6842
73.1534	12.9643	0.6804
73.1817	13.1429	0.6851
73.2099	11.8929	0.6517
73.2382	12.4286	0.6662
73.2665	12.1071	0.6576
73.2947	11.2857	0.6349
73.3230	11.5000	0.6409
73.3512	10.9286	0.6247
73.3795	11.5439	0.6364
73.4078	10.2456	0.5996
73.4360	11.4737	0.6345
73.4643	10.4211	0.6047
73.4926	10.1053	0.5955
73.5208	9.4035	0.5744
73.5491	9.6491	0.5819
73.5774	10.2456	0.5996
73.6056	10.0351	0.5934
73.6339	10.4211	0.6047
73.6622	9.5088	0.5776
73.6904	9.4386	0.5755
73.7187	9.6140	0.5808
73.7470	10.3158	0.6016
73.7752	8.7368	0.5537
73.8035	9.1930	0.5679
73.8318	8.7018	0.5526
73.8600	8.3860	0.5424
73.8883	9.7193	0.5840
73.9166	8.8070	0.5559
73.9448	9.6491	0.5819
73.9731	10.2105	0.5986
74.0014	9.1228	0.5658
74.0296	9.0175	0.5625
74.0579	9.2982	0.5712
74.0862	8.7368	0.5537
74.1144	9.2982	0.5712
74.1427	8.7719	0.5548
74.1709	8.2414	0.5331
74.1992	9.1724	0.5624
74.2275	7.6897	0.5149
74.2557	8.7586	0.5496
74.2840	9.4828	0.5718
74.3123	8.0345	0.5264
74.3405	8.8621	0.5528
74.3688	7.3448	0.5033
74.3971	8.2759	0.5342
74.4253	9.0690	0.5592
74.4536	7.6897	0.5149
74.4819	7.0345	0.4925
74.5101	8.5862	0.5441
74.5384	8.8966	0.5539
74.5667	8.7241	0.5485
74.5949	8.4483	0.5397
74.6232	7.9661	0.5197
74.6515	8.7458	0.5445
74.6797	8.8814	0.5487
74.7080	8.5424	0.5381
74.7363	8.8814	0.5487
74.7645	8.2034	0.5273
74.7928	8.6441	0.5413
74.8211	9.7288	0.5743
74.8493	8.5085	0.5371
74.8776	8.5085	0.5371
74.9059	7.0169	0.4877
74.9341	8.5085	0.5371
74.9624	8.1695	0.5262
74.9907	9.0508	0.5539
75.0189	8.4746	0.5360
75.0472	8.2373	0.5284
75.0754	9.0169	0.5529
75.1037	8.8475	0.5476
75.1320	9.2881	0.5611
75.1602	8.4068	0.5338
75.1885	9.0508	0.5539
75.2168	8.0678	0.5230
75.2450	8.4068	0.5338
75.2733	8.6102	0.5403
75.3016	8.8136	0.5466
75.3298	8.8814	0.5487
75.3581	9.5667	0.5647
75.3864	8.5667	0.5344
75.4146	8.9667	0.5467
75.4429	9.0667	0.5497
75.4712	7.7333	0.5077
75.4994	7.7000	0.5066
75.5277	8.4333	0.5302
75.5560	7.8333	0.5110
75.5842	7.8667	0.5121
75.6125	7.3000	0.4933
75.6408	8.0333	0.5175
75.6690	8.5667	0.5344
75.6973	7.9000	0.5132
75.7256	8.4333	0.5302
75.7538	7.2667	0.4922
75.7821	8.0000	0.5164
75.8104	8.3333	0.5270
75.8386	7.8361	0.5069
75.8669	8.6557	0.5327
75.8951	7.5410	0.4972
75.9234	8.0328	0.5132
75.9517	8.5574	0.5297
75.9799	8.0656	0.5142
76.0082	8.8197	0.5377
76.0365	8.3607	0.5236
76.0647	8.6230	0.5317
76.0930	8.8525	0.5387
76.1213	7.5738	0.4983
76.1495	7.5738	0.4983
76.1778	8.6885	0.5337
76.2061	7.7705	0.5047
76.2343	7.8361	0.5069
76.2626	7.6721	0.5015
76.2909	8.6230	0.5317
76.3191	7.7049	0.5026
76.3474	7.8361	0.5069
76.3757	7.7049	0.5026
76.4039	7.4754	0.4951
76.4322	7.6066	0.4994
76.4605	8.3279	0.5225
76.4887	7.7049	0.5026
76.5170	8.1935	0.5141
76.5453	8.2903	0.5171
76.5735	7.8387	0.5029
76.6018	7.7419	0.4997
76.6301	9.1935	0.5446
76.6583	7.8065	0.5018
76.6866	8.1935	0.5141
76.7149	8.1290	0.5121
76.7431	7.8387	0.5029
76.7714	8.4194	0.5211
76.7996	7.3871	0.4882
76.8279	8.4194	0.5211
76.8562	8.0645	0.5100
76.8844	7.6452	0.4966
76.9127	8.7419	0.5310
76.9410	7.7742	0.5008
76.9692	6.3226	0.4516
76.9975	8.1935	0.5141
77.0258	8.4839	0.5231
77.0540	7.4839	0.4913
77.0823	8.0952	0.5069
77.1106	7.9048	0.5009
77.1388	7.4921	0.4877
77.1671	9.0476	0.5359
77.1954	7.9683	0.5030
77.2236	8.4444	0.5178
77.2519	8.1905	0.5099
77.2802	6.9841	0.4709
77.3084	8.2222	0.5109
77.3367	7.5873	0.4908
77.3650	7.7143	0.4949
77.3932	7.3016	0.4815
77.4215	8.2857	0.5129
77.4498	7.9048	0.5009
77.4780	6.6984	0.4611
77.5063	6.7937	0.4644
77.5346	8.6032	0.5226
77.5628	8.3492	0.5148
77.5911	7.5873	0.4908
77.6193	7.7778	0.4969
77.6476	8.0952	0.5069
77.6759	6.9524	0.4698
77.7041	7.9375	0.4980
77.7324	8.0625	0.5019
77.7607	7.5938	0.4871
77.7889	8.5313	0.5163
77.8172	9.3125	0.5395
77.8455	7.5625	0.4861
77.8737	7.6563	0.4891
77.9020	7.4375	0.4821
77.9303	8.1250	0.5039
77.9585	7.2188	0.4750
77.9868	7.7500	0.4921
78.0151	8.3125	0.5097
78.0433	7.7500	0.4921
78.0716	7.5313	0.4851
78.0999	7.9063	0.4971
78.1281	7.6250	0.4881
78.1564	7.2500	0.4760
78.1847	8.2188	0.5068
78.2129	9.2188	0.5367
78.2412	7.9375	0.4980
78.2695	7.3125	0.4780
78.2977	7.5077	0.4806
78.3260	6.9846	0.4636
78.3543	8.4923	0.5112
78.3825	8.2769	0.5047
78.4108	7.3538	0.4757
78.4390	8.2462	0.5037
78.4673	7.6000	0.4836
78.4956	7.7846	0.4894
78.5238	8.2462	0.5037
78.5521	7.8769	0.4923
78.5804	8.9846	0.5258
78.6086	7.7538	0.4884
78.6369	8.2769	0.5047
78.6652	7.9385	0.4942
78.6934	7.4154	0.4777
78.7217	8.3077	0.5056
78.7500	7.9077	0.4933
78.7782	7.3846	0.4767
78.8065	8.0615	0.4980
78.8348	7.7538	0.4884
78.8630	7.4545	0.4753
78.8913	8.6364	0.5116
78.9196	7.7576	0.4848
78.9478	7.9091	0.4896
78.9761	8.4545	0.5062
79.0044	7.8788	0.4886
79.0326	9.0303	0.5231
79.0609	7.3030	0.4704
79.0892	7.6970	0.4830
79.1174	8.7273	0.5143
79.1457	8.2727	0.5007
79.1740	8.3333	0.5025
79.2022	7.3030	0.4704
79.2305	7.1212	0.4645
79.2588	8.0909	0.4952
79.2870	8.4242	0.5053
79.3153	7.3030	0.4704
79.3435	8.7879	0.5160
79.3718	7.8485	0.4877
79.4001	7.7273	0.4839
79.4283	8.6061	0.5107
79.4566	7.5152	0.4772
79.4849	7.8485	0.4877
79.5131	8.5455	0.5089
79.5414	7.7910	0.4823
79.5697	6.8060	0.4507
79.5979	8.1791	0.4941
79.6262	7.2836	0.4663
79.6545	7.4030	0.4701
79.6827	7.4627	0.4720
79.7110	7.7313	0.4804
79.7393	7.9701	0.4878
79.7675	7.6418	0.4776
79.7958	7.8507	0.4841
79.8241	7.3433	0.4682
79.8523	8.0896	0.4914
79.8806	7.5522	0.4748
79.9089	8.0597	0.4905
79.9371	7.9701	0.4878
79.9654	8.1194	0.4923
79.9937	7.0746	0.4595
80.0219	7.2537	0.4653
80.0502	8.7941	0.5086
80.0785	8.0000	0.4851
80.1067	7.8824	0.4815
80.1350	7.7353	0.4770
80.1632	8.5000	0.5000
80.1915	7.1176	0.4575
80.2198	8.4118	0.4974
80.2480	8.2647	0.4930
80.2763	7.6176	0.4733
80.3046	8.0882	0.4877
80.3328	8.2353	0.4922
80.3611	8.2059	0.4913
80.3894	9.2647	0.5220
80.4176	8.5294	0.5009
80.4459	8.5000	0.5000
80.4742	7.7941	0.4788
80.5024	8.3824	0.4965
80.5307	7.6176	0.4733
80.5590	7.0294	0.4547
80.5872	7.9118	0.4824
80.6155	7.5294	0.4706
80.6438	7.7059	0.4761
80.6720	7.6471	0.4743
80.7003	9.1471	0.5187
80.7286	8.0294	0.4860
80.7568	8.4348	0.4945
80.7851	9.1594	0.5153
80.8134	8.1159	0.4850
80.8416	8.0580	0.4833
80.8699	8.3478	0.4919
80.8982	7.9130	0.4789
80.9264	6.9855	0.4500
80.9547	9.3333	0.5201
80.9830	8.1739	0.4867
81.0112	7.6522	0.4710
81.0395	8.0000	0.4815
81.0677	7.5362	0.4674
81.0960	7.3043	0.4601
81.1243	7.6812	0.4718
81.1525	7.7101	0.4727
81.1808	7.8841	0.4780
81.2091	7.9429	0.4764
81.2373	8.3429	0.4882
81.2656	7.6857	0.4686
81.2939	7.8571	0.4738
81.3221	9.0571	0.5087
81.3504	7.6000	0.4660
81.3787	8.1429	0.4823
81.4069	7.1143	0.4508
81.4352	8.0000	0.4781
81.4635	9.0286	0.5079
81.4917	8.9143	0.5047
81.5200	8.2286	0.4849
81.5483	7.6571	0.4677
81.5765	8.2857	0.4866
81.6048	8.4571	0.4916
81.6331	7.9143	0.4755
81.6613	8.8571	0.5031
81.6896	8.1429	0.4823
81.7179	7.2286	0.4545
81.7461	8.6857	0.4982
81.7744	8.5429	0.4940
81.8027	7.8000	0.4721
81.8309	8.2571	0.4857
81.8592	8.2857	0.4866
81.8874	7.8571	0.4738
81.9157	7.8857	0.4747
81.9440	7.5429	0.4642
81.9722	8.2286	0.4849
82.0005	9.0141	0.5039
82.0288	8.0000	0.4747
82.0570	8.2254	0.4814
82.0853	8.0282	0.4755
82.1136	7.6620	0.4646
82.1418	8.1690	0.4797
82.1701	8.9577	0.5023
82.1984	8.3662	0.4855
82.2266	8.5634	0.4911
82.2549	7.9718	0.4739
82.2832	8.6479	0.4936
82.3114	8.0000	0.4747
82.3397	8.2817	0.4830
82.3680	7.7183	0.4663
82.3962	9.0556	0.5015
82.4245	8.5833	0.4883
82.4528	8.3333	0.4811
82.4810	8.4722	0.4851
82.5093	8.1667	0.4763
82.5376	8.2222	0.4779
82.5658	8.7500	0.4930
82.5941	8.7778	0.4938
82.6224	9.0000	0.5000
82.6506	8.0556	0.4730
82.6789	8.7778	0.4938
82.7071	8.7778	0.4938
82.7354	9.0000	0.5000
82.7637	8.4167	0.4835
82.7919	8.3333	0.4811
82.8202	8.4722	0.4851
82.8485	8.3889	0.4827
82.8767	8.8333	0.4953
82.9050	8.5833	0.4883
82.9333	9.1944	0.5054
82.9615	8.7222	0.4922
82.9898	8.4722	0.4851
83.0181	9.0556	0.5015
83.0463	9.0833	0.5023
83.0746	7.8889	0.4681
83.1029	9.1389	0.5038
83.1311	8.4444	0.4843
83.1594	8.7222	0.4922
83.1877	9.4167	0.5114
83.2159	8.7397	0.4893
83.2442	9.1507	0.5007
83.2725	8.9589	0.4954
83.3007	9.2603	0.5037
83.3290	8.8493	0.4924
83.3573	9.2603	0.5037
83.3855	9.0137	0.4969
83.4138	8.8219	0.4916
83.4421	8.7397	0.4893
83.4703	8.1644	0.4730
83.4986	8.8767	0.4932
83.5269	8.7945	0.4909
83.5551	8.8919	0.4902
83.5834	9.0541	0.4947
83.6116	9.0541	0.4947
83.6399	9.0811	0.4954
83.6682	9.1081	0.4962
83.6964	8.7027	0.4850
83.7247	8.8108	0.4880
83.7530	8.6757	0.4842
83.7812	9.7027	0.5121
83.8095	9.5135	0.5071
83.8378	9.6216	0.5099
83.8660	9.7568	0.5135
83.8943	9.0000	0.4932
83.9226	9.2703	0.5005
83.9508	9.5946	0.5092
83.9791	9.8919	0.5171
84.0074	9.4595	0.5056
84.0356	9.4595	0.5056
84.0639	10.0811	0.5220
84.0922	9.2973	0.5013
84.1204	10.0541	0.5213
84.1487	9.5946	0.5092
84.1770	10.6757	0.5372
84.2052	9.6486	0.5107
84.2335	9.8649	0.5164
84.2618	11.1622	0.5493
84.2900	10.8108	0.5405
84.3183	10.1892	0.5248
84.3466	10.1081	0.5227
84.3748	11.0000	0.5452
84.4031	10.0541	0.5213
84.4313	10.8378	0.5412
84.4596	11.7867	0.5606
84.4879	11.2267	0.5472
84.5161	11.7867	0.5606
84.5444	11.6000	0.5562
84.5727	12.5600	0.5787
84.6009	13.3333	0.5963
84.6292	12.2933	0.5726
84.6575	12.4267	0.5757
84.6857	11.6000	0.5562
84.7140	12.6316	0.5766
84.7423	13.4474	0.5949
84.7705	13.5789	0.5978
84.7988	14.6842	0.6216
84.8271	14.0000	0.6070
84.8553	12.9474	0.5837
84.8836	14.1053	0.6093
84.9119	14.3947	0.6155
84.9401	15.1316	0.6310
84.9684	15.4211	0.6370
84.9967	14.8158	0.6244
85.0249	16.5526	0.6600
85.0532	17.4211	0.6771
85.0815	18.4737	0.6972
85.1097	17.9737	0.6877
85.1380	18.0789	0.6898
85.1663	17.5789	0.6801
85.1945	18.3947	0.6958
85.2228	18.5526	0.6987
85.2511	19.2632	0.7120
85.2793	18.3947	0.6958
85.3076	19.9474	0.7245
85.3358	20.2632	0.7302
85.3641	19.8421	0.7226
85.3924	21.7368	0.7563
85.4206	21.5789	0.7536
85.4489	20.8947	0.7415
85.4772	22.3421	0.7668
85.5054	22.6579	0.7722
85.5337	23.3684	0.7842
85.5620	24.9474	0.8103
85.5902	23.9737	0.7943
85.6185	24.4211	0.8017
85.6468	25.7368	0.8230
85.6750	23.7403	0.7853
85.7033	24.4156	0.7963
85.7316	22.5195	0.7648
85.7598	25.1688	0.8085
85.7881	24.4416	0.7968
85.8164	22.8052	0.7696
85.8446	25.0909	0.8073
85.8729	23.7403	0.7853
85.9012	22.7692	0.7641
85.9294	22.7692	0.7641
85.9577	22.9487	0.7671
85.9860	20.8205	0.7307
86.0142	20.5641	0.7261
86.0425	20.3590	0.7225
86.0708	19.8974	0.7143
86.0990	18.9487	0.6970
86.1273	19.6154	0.7092
86.1555	15.9487	0.6395
86.1838	16.2564	0.6456
86.2121	14.8205	0.6165
86.2403	15.2308	0.6249
86.2686	15.4359	0.6291
86.2969	13.6154	0.5909
86.3251	15.0769	0.6218
86.3534	12.7436	0.5716
86.3817	11.9487	0.5535
86.4099	11.7949	0.5499
86.4382	12.6410	0.5693
86.4665	12.1538	0.5582
86.4947	11.8718	0.5517
86.5230	11.5385	0.5439
86.5513	10.7179	0.5242
86.5795	11.2564	0.5372
86.6078	11.2821	0.5379
86.6361	11.3333	0.5391
86.6643	10.4872	0.5186
86.6926	10.9231	0.5292
86.7209	11.2051	0.5360
86.7491	11.4872	0.5427
86.7774	10.0000	0.5064
86.8057	11.1795	0.5354
86.8339	10.2564	0.5128
86.8622	9.2564	0.4872
86.8905	10.0759	0.5051
86.9187	9.5190	0.4909
86.9470	10.2532	0.5095
86.9752	9.5190	0.4909
87.0035	9.6709	0.4948
87.0318	10.3038	0.5107
87.0600	9.9500	0.4987
87.0883	9.8250	0.4956
87.1166	10.1000	0.5025
87.1448	9.8500	0.4962
87.1731	9.3750	0.4841
87.2014	9.2250	0.4802
87.2296	9.1000	0.4770
87.2579	8.9500	0.4730
87.2862	8.5750	0.4630
87.3144	8.4500	0.4596
87.3427	9.1250	0.4776
87.3710	9.3000	0.4822
87.3992	8.2750	0.4548
87.4275	9.5750	0.4893
87.4558	9.9250	0.4981
87.4840	9.1500	0.4783
87.5123	9.1000	0.4770
87.5406	8.8750	0.4710
87.5688	9.2250	0.4802
87.5971	8.4250	0.4589
87.6254	10.0000	0.5000
87.6536	8.4500	0.4596
87.6819	9.2500	0.4809
87.7102	9.8500	0.4962
87.7384	9.4750	0.4867
87.7667	9.5500	0.4886
87.7950	9.1750	0.4789
87.8232	9.3750	0.4841
87.8515	8.4750	0.4603
87.8797	9.3750	0.4841
87.9080	8.9750	0.4737
87.9363	8.9750	0.4737
87.9645	9.5500	0.4886
87.9928	9.0500	0.4757
88.0211	8.7500	0.4677
88.0493	9.3000	0.4822
88.0776	9.2500	0.4809
88.1059	8.5250	0.4617
88.1341	9.9753	0.4963
88.1624	9.7284	0.4901
88.1907	8.7654	0.4652
88.2189	8.5432	0.4593
88.2472	8.9512	0.4672
88.2755	9.1463	0.4723
88.3037	9.5610	0.4829
88.3320	8.9512	0.4672
88.3603	9.4390	0.4798
88.3885	9.6341	0.4847
88.4168	8.7805	0.4628
88.4451	9.5854	0.4835
88.4733	9.4634	0.4804
88.5016	9.9268	0.4921
88.5299	9.6341	0.4847
88.5581	9.8293	0.4896
88.5864	8.2683	0.4491
88.6147	9.2195	0.4742
88.6429	9.3171	0.4767
88.6712	9.0976	0.4711
88.6994	9.7073	0.4866
88.7277	9.5366	0.4823
88.7560	9.0244	0.4692
88.7842	9.0488	0.4698
88.8125	9.5854	0.4835
88.8408	10.0488	0.4951
88.8690	9.3902	0.4786
88.8973	9.8049	0.4890
88.9256	9.2439	0.4748
88.9538	10.5610	0.5075
88.9821	9.5610	0.4829
89.0104	9.5610	0.4829
89.0386	10.5122	0.5064
89.0669	9.7317	0.4872
89.0952	10.4390	0.5046
89.1234	9.1463	0.4723
89.1517	9.4634	0.4804
89.1800	10.4878	0.5058
89.2082	9.8537	0.4902
89.2365	9.3659	0.4779
89.2648	9.6829	0.4860
89.2930	9.3659	0.4779
89.3213	10.0976	0.4963
89.3496	9.5422	0.4795
89.3778	9.5663	0.4801
89.4061	9.3810	0.4726
89.4344	9.9762	0.4874
89.4626	9.6667	0.4797
89.4909	9.9524	0.4868
89.5192	9.4524	0.4744
89.5474	9.2143	0.4684
89.5757	10.3571	0.4966
89.6039	9.9762	0.4874
89.6322	10.4524	0.4989
89.6605	10.0238	0.4885
89.6887	9.9524	0.4868
89.7170	9.6190	0.4786
89.7453	10.3095	0.4954
89.7735	10.2619	0.4943
89.8018	10.2857	0.4949
89.8301	8.3810	0.4467
89.8583	9.8095	0.4833
89.8866	9.6667	0.4797
89.9149	9.6905	0.4803
89.9431	9.4048	0.4732
89.9714	10.0476	0.4891
89.9997	9.5238	0.4762
90.0279	11.1429	0.5151
90.0562	10.0000	0.4880
90.0845	10.5714	0.5017
90.1127	9.8571	0.4845
90.1410	9.9048	0.4856
90.1693	10.2857	0.4949
90.1975	9.3333	0.4714
90.2258	9.6429	0.4792
90.2541	11.3095	0.5189
90.2823	10.0000	0.4880
90.3106	10.3810	0.4972
90.3389	10.2143	0.4932
90.3671	10.0952	0.4903
90.3954	10.1190	0.4908
90.4236	10.5000	0.5000
90.4519	9.1429	0.4666
90.4802	10.5476	0.5011
90.5084	9.7143	0.4809
90.5367	10.3333	0.4960
90.5650	9.3810	0.4726
90.5932	10.5116	0.4944
90.6215	10.0233	0.4828
90.6498	9.7442	0.4760
90.6780	10.6744	0.4982
90.7063	10.0930	0.4845
90.7346	10.8837	0.5031
90.7628	10.3023	0.4895
90.7911	9.4884	0.4697
90.8194	10.3256	0.4900
90.8476	9.7209	0.4755
90.8759	10.6047	0.4966
90.9042	11.0698	0.5074
90.9324	10.3953	0.4917
90.9607	10.9767	0.5052
90.9890	10.1163	0.4850
91.0172	10.3953	0.4917
91.0455	9.9767	0.4817
91.0738	9.6047	0.4726
91.1020	10.4186	0.4922
91.1303	11.0930	0.5079
91.1586	10.9302	0.5042
91.1868	10.8372	0.5020
91.2151	12.0698	0.5298
91.2433	11.0698	0.5074
91.2716	10.5349	0.4950
91.2999	10.4884	0.4939
91.3281	11.4186	0.5153
91.3564	9.5116	0.4703
91.3847	10.7209	0.4993
91.4129	10.6977	0.4988
91.4412	10.3953	0.4917
91.4695	10.8372	0.5020
91.4977	10.9767	0.5052
91.5260	10.3023	0.4895
91.5543	10.3256	0.4900
91.5825	11.4651	0.5164
91.6108	11.0233	0.5063
91.6391	10.4884	0.4939
91.6673	11.0698	0.5074
91.6956	11.1163	0.5084
91.7239	11.9070	0.5262
91.7521	11.1494	0.5063
91.7804	10.2989	0.4866
91.8087	11.1818	0.5041
91.8369	11.3636	0.5082
91.8652	11.3636	0.5082
91.8935	11.4318	0.5097
91.9217	11.8636	0.5193
91.9500	10.6136	0.4911
91.9783	11.1818	0.5041
92.0065	11.2500	0.5056
92.0348	11.1591	0.5036
92.0631	10.7273	0.4938
92.0913	10.6591	0.4922
92.1196	11.3864	0.5087
92.1478	11.0682	0.5015
92.1761	11.5000	0.5112
92.2044	12.0000	0.5222
92.2326	12.0682	0.5237
92.2609	11.6818	0.5153
92.2892	11.7045	0.5158
92.3174	12.1591	0.5257
92.3457	11.4545	0.5102
92.3740	11.7727	0.5173
92.4022	11.6364	0.5143
92.4305	11.8409	0.5188
92.4588	11.2045	0.5046
92.4870	11.4091	0.5092
92.5153	10.8864	0.4974
92.5436	11.6136	0.5138
92.5718	10.9773	0.4995
92.6001	12.2500	0.5276
92.6284	11.5682	0.5128
92.6566	10.5000	0.4885
92.6849	11.2955	0.5067
92.7132	11.0682	0.5015
92.7414	12.6818	0.5369
92.7697	11.7273	0.5163
92.7980	11.2500	0.5056
92.8262	11.6818	0.5153
92.8545	11.9091	0.5203
92.8828	11.9318	0.5207
92.9110	11.0000	0.5000
92.9393	11.9101	0.5173
92.9675	12.1798	0.5232
92.9958	11.9101	0.5173
93.0241	12.4494	0.5289
93.0523	11.9556	0.5154
93.0806	11.5778	0.5072
93.1089	12.0000	0.5164
93.1371	12.8667	0.5347
93.1654	11.8444	0.5130
93.1937	12.4000	0.5249
93.2219	12.3333	0.5235
93.2502	11.4000	0.5033
93.2785	13.0000	0.5375
93.3067	12.2667	0.5221
93.3350	12.2667	0.5221
93.3633	11.9333	0.5150
93.3915	12.2444	0.5216
93.4198	13.1111	0.5398
93.4481	12.1556	0.5197
93.4763	12.4889	0.5268
93.5046	12.8222	0.5338
93.5329	12.1333	0.5193
93.5611	12.1111	0.5188
93.5894	13.0667	0.5389
93.6177	12.2222	0.5212
93.6459	11.9556	0.5154
93.6742	11.3333	0.5018
93.7025	12.6444	0.5301
93.7307	13.0444	0.5384
93.7590	11.9111	0.5145
93.7872	12.1111	0.5188
93.8155	12.0667	0.5178
93.8438	12.3111	0.5230
93.8720	12.4000	0.5249
93.9003	11.9333	0.5150
93.9286	12.7333	0.5319
93.9568	11.6667	0.5092
93.9851	13.2000	0.5416
94.0134	12.5333	0.5277
94.0416	13.0000	0.5375
94.0699	12.2889	0.5226
94.0982	13.2747	0.5401
94.1264	13.4286	0.5433
94.1547	12.8352	0.5311
94.1830	12.5055	0.5243
94.2112	12.9670	0.5338
94.2395	13.7143	0.5490
94.2678	12.7609	0.5267
94.2960	13.1957	0.5356
94.3243	12.6957	0.5253
94.3526	13.5000	0.5417
94.3808	13.6087	0.5439
94.4091	13.5000	0.5417
94.4374	13.9348	0.5504
94.4656	13.7174	0.5461
94.4939	13.5000	0.5417
94.5222	13.8696	0.5491
94.5504	13.5652	0.5430
94.5787	13.1304	0.5343
94.6070	13.9783	0.5512
94.6352	13.0000	0.5316
94.6635	12.9348	0.5303
94.6917	13.0435	0.5325
94.7200	13.2609	0.5369
94.7483	12.6087	0.5235
94.7765	13.3261	0.5382
94.8048	13.4783	0.5413
94.8331	14.1739	0.5551
94.8613	13.3478	0.5387
94.8896	14.0217	0.5521
94.9179	14.1304	0.5542
94.9461	13.1304	0.5343
94.9744	13.0217	0.5321
95.0027	13.2609	0.5369
95.0309	13.3913	0.5396
95.0592	13.3913	0.5396
95.0875	14.1739	0.5551
95.1157	13.5652	0.5430
95.1440	13.0435	0.5325
95.1723	15.0217	0.5715
95.2005	13.2174	0.5360
95.2288	13.8913	0.5495
95.2571	13.1739	0.5352
95.2853	13.6344	0.5415
95.3136	14.5376	0.5591
95.3419	13.6344	0.5415
95.3701	13.8710	0.5462
95.3984	12.0430	0.5089
95.4267	13.6774	0.5423
95.4549	13.6774	0.5423
95.4832	14.3011	0.5546
95.5114	13.8936	0.5437
95.5397	13.1064	0.5281
95.5680	14.7660	0.5605
95.5962	15.3404	0.5713
95.6245	14.2979	0.5516
95.6528	14.5532	0.5565
95.6810	13.4255	0.5345
95.7093	14.5745	0.5569
95.7376	14.4681	0.5548
95.7658	14.6596	0.5585
95.7941	14.4894	0.5552
95.8224	14.5106	0.5556
95.8506	14.0213	0.5462
95.8789	14.4255	0.5540
95.9072	14.4468	0.5544
95.9354	15.7234	0.5784
95.9637	14.8511	0.5621
95.9920	14.7234	0.5597
96.0202	14.2128	0.5499
96.0485	15.6809	0.5776
96.0768	14.9149	0.5633
96.1050	15.1915	0.5685
96.1333	14.3191	0.5520
96.1616	14.8085	0.5613
96.1898	14.4468	0.5544
96.2181	14.8723	0.5625
96.2464	15.3404	0.5713
96.2746	15.6809	0.5776
96.3029	15.2766	0.5701
96.3312	14.7021	0.5593
96.3594	14.1915	0.5495
96.3877	15.2340	0.5693
96.4159	14.3617	0.5528
96.4442	15.2211	0.5661
96.4725	15.3263	0.5680
96.5007	14.8842	0.5598
96.5290	15.2632	0.5669
96.5573	15.8947	0.5785
96.5855	13.8526	0.5400
96.6138	15.6632	0.5742
96.6421	16.0211	0.5808
96.6703	15.1368	0.5645
96.6986	15.2632	0.5669
96.7269	16.1458	0.5800
96.7551	15.5417	0.5690
96.7834	16.4792	0.5859
96.8117	16.3958	0.5844
96.8399	15.3125	0.5648
96.8682	15.6667	0.5713
96.8965	16.5000	0.5863
96.9247	16.6875	0.5896
96.9530	16.2292	0.5815
96.9813	16.7708	0.5911
97.0095	15.7083	0.5721
97.0378	18.5000	0.6208
97.0661	15.6458	0.5709
97.0943	17.1458	0.5977
97.1226	17.4167	0.6024
97.1509	17.4167	0.6024
97.1791	16.5833	0.5878
97.2074	18.1458	0.6148
97.2356	17.5625	0.6049
97.2639	18.6875	0.6240
97.2922	19.2500	0.6333
97.3204	18.8958	0.6274
97.3487	18.1458	0.6148
97.3770	18.0000	0.6124
97.4052	17.9792	0.6120
97.4335	18.5625	0.6219
97.4618	19.3542	0.6350
97.4900	19.3125	0.6343
97.5183	19.7292	0.6411
97.5466	19.3750	0.6353
97.5748	19.5417	0.6381
97.6031	20.5979	0.6517
97.6314	19.5464	0.6348
97.6596	19.9588	0.6415
97.6879	20.1031	0.6438
97.7162	20.5361	0.6507
97.7444	21.8557	0.6713
97.7727	21.3814	0.6640
97.8010	21.6082	0.6675
97.8292	21.3608	0.6636
97.8575	20.7423	0.6540
97.8858	22.9485	0.6879
97.9140	23.6495	0.6983
97.9423	22.7423	0.6848
97.9706	24.5306	0.7075
97.9988	24.9592	0.7137
98.0271	22.7959	0.6821
98.0553	24.4490	0.7064
98.0836	26.8163	0.7398
98.1119	25.7551	0.7250
98.1401	26.5714	0.7364
98.1684	27.1429	0.7443
98.1967	27.5102	0.7493
98.2249	27.7347	0.7523
98.2532	27.3673	0.7473
98.2815	26.8571	0.7403
98.3097	29.3878	0.7744
98.3380	28.4286	0.7617
98.3663	30.0000	0.7825
98.3945	29.1020	0.7707
98.4228	29.7755	0.7795
98.4511	32.5714	0.8153
98.4793	32.3265	0.8122
98.5076	32.0204	0.8084
98.5359	33.2449	0.8237
98.5641	33.0408	0.8212
98.5924	33.6327	0.8285
98.6207	33.2857	0.8242
98.6489	34.0612	0.8337
98.6772	35.0612	0.8459
98.7055	36.5306	0.8634
98.7337	35.8163	0.8550
98.7620	35.7959	0.8547
98.7903	36.2245	0.8598
98.8185	36.8163	0.8668
98.8468	37.3878	0.8735
98.8751	36.2245	0.8598
98.9033	39.2245	0.8947
98.9316	35.8367	0.8552
98.9598	35.7143	0.8537
98.9881	36.8571	0.8673
99.0164	37.2323	0.8673
99.0446	36.8889	0.8633
99.0729	36.4242	0.8578
99.1012	37.0303	0.8649
99.1294	36.8889	0.8633
99.1577	37.1313	0.8661
99.1860	36.3400	0.8525
99.2142	35.1000	0.8379
99.2425	34.5400	0.8311
99.2708	35.0800	0.8376
99.2990	34.5200	0.8309
99.3273	33.5600	0.8193
99.3556	34.0800	0.8256
99.3838	32.9200	0.8114
99.4121	30.7200	0.7838
99.4404	31.9400	0.7992
99.4686	29.3400	0.7660
99.4969	29.2000	0.7642
99.5252	31.0600	0.7882
99.5534	28.0600	0.7491
99.5817	27.7800	0.7454
99.6100	26.7800	0.7318
99.6382	25.5200	0.7144
99.6665	25.3000	0.7113
99.6948	24.5000	0.7000
99.7230	24.4200	0.6989
99.7513	23.5600	0.6864
99.7795	23.7600	0.6893
99.8078	22.4600	0.6702
99.8361	23.0000	0.6782
99.8643	21.6000	0.6573
99.8926	19.8200	0.6296
99.9209	22.0200	0.6636
99.9491	20.9600	0.6475
99.9774	19.3800	0.6226
100.0057	19.4200	0.6232
100.0339	19.9400	0.6315
100.0622	18.5800	0.6096
100.0905	18.8600	0.6142
100.1187	20.4000	0.6387
100.1470	18.7600	0.6125
100.1753	18.3000	0.6050
100.2035	18.3200	0.6053
100.2318	18.1800	0.6030
100.2601	18.9400	0.6155
100.2883	17.7000	0.5950
100.3166	18.0600	0.6010
100.3449	17.8600	0.5977
100.3731	17.4600	0.5909
100.4014	18.9703	0.6129
100.4297	17.5294	0.5863
100.4579	18.0000	0.5941
100.4862	18.8824	0.6085
100.5145	17.4902	0.5856
100.5427	17.4118	0.5843
100.5710	18.0392	0.5947
100.5993	17.4706	0.5853
100.6275	15.7843	0.5563
100.6558	17.3333	0.5830
100.6840	17.4314	0.5846
100.7123	17.2353	0.5813
100.7406	16.8431	0.5747
100.7688	16.2353	0.5642
100.7971	18.0392	0.5947
100.8254	16.8431	0.5747
100.8536	17.0784	0.5787
100.8819	17.3137	0.5827
100.9102	16.4510	0.5680
100.9384	14.9804	0.5420
100.9667	18.5490	0.6031
100.9950	17.4902	0.5856
101.0232	16.6471	0.5713
101.0515	18.0196	0.5944
101.0798	16.8431	0.5747
101.1080	17.1373	0.5797
101.1363	17.4314	0.5846
101.1646	16.6471	0.5713
101.1928	16.7843	0.5737
101.2211	17.1569	0.5800
101.2494	16.8039	0.5740
101.2776	17.0784	0.5787
101.3059	16.8627	0.5750
101.3342	16.6078	0.5707
101.3624	16.8824	0.5753
101.3907	18.0000	0.5941
101.4190	17.2157	0.5810
101.4472	16.7255	0.5727
101.4755	15.9216	0.5587
101.5037	17.4118	0.5843
101.5320	16.2353	0.5642
101.5603	17.2941	0.5823
101.5885	16.9020	0.5757
101.6168	16.4706	0.5683
101.6451	16.8039	0.5740
101.6733	16.7647	0.5733
101.7016	17.2745	0.5820
101.7299	16.1961	0.5635
101.7581	16.7647	0.5733
101.7864	18.4706	0.6018
101.8147	16.9608	0.5767
101.8429	17.4951	0.5828
101.8712	16.7500	0.5676
101.8995	17.7308	0.5839
101.9277	16.3269	0.5603
101.9560	15.8654	0.5524
101.9843	16.1538	0.5574
102.0125	16.6731	0.5662
102.0408	16.4231	0.5620
102.0691	15.7308	0.5500
102.0973	16.8846	0.5698
102.1256	16.7500	0.5676
102.1539	15.9808	0.5544
102.1821	16.8654	0.5695
102.2104	16.4231	0.5620
102.2387	17.2692	0.5763
102.2669	16.1538	0.5574
102.2952	16.5577	0.5643
102.3234	15.7308	0.5500
102.3517	16.6346	0.5656
102.3800	15.9038	0.5530
102.4082	17.5962	0.5817
102.4365	16.4423	0.5623
102.4648	17.1731	0.5747
102.4930	17.3269	0.5772
102.5213	16.2500	0.5590
102.5496	15.7885	0.5510
102.5778	16.9423	0.5708
102.6061	17.8462	0.5858
102.6344	16.6731	0.5662
102.6626	15.7885	0.5510
102.6909	16.0962	0.5564
102.7192	16.6731	0.5662
102.7474	17.3654	0.5779
102.7757	16.4808	0.5630
102.8040	16.8462	0.5692
102.8322	17.7500	0.5842
102.8605	16.1923	0.5580
102.8888	16.7885	0.5682
102.9170	17.2500	0.5760
102.9453	17.1346	0.5740
102.9736	17.6731	0.5830
103.0018	17.2500	0.5760
103.0301	16.8269	0.5689
103.0584	17.2500	0.5760
103.0866	16.8654	0.5695
103.1149	16.3077	0.5600
103.1432	15.9808	0.5544
103.1714	17.3654	0.5779
103.1997	16.2308	0.5587
103.2279	16.4423	0.5623
103.2562	16.5714	0.5618
103.2845	18.0952	0.5871
103.3127	17.5810	0.5787
103.3410	17.4717	0.5742
103.3693	17.0000	0.5664
103.3975	16.9057	0.5648
103.4258	16.6792	0.5610
103.4541	16.8868	0.5645
103.4823	17.2264	0.5701
103.5106	16.9057	0.5648
103.5389	16.0377	0.5501
103.5671	16.7925	0.5629
103.5954	16.3585	0.5556
103.6237	15.6604	0.5436
103.6519	16.2642	0.5540
103.6802	16.4717	0.5575
103.7085	16.3774	0.5559
103.7367	17.1132	0.5682
103.7650	17.2453	0.5704
103.7933	16.7925	0.5629
103.8215	16.2642	0.5540
103.8498	17.4528	0.5738
103.8781	16.6038	0.5597
103.9063	16.7925	0.5629
103.9346	18.2075	0.5861
103.9629	15.7170	0.5446
103.9911	16.3019	0.5546
104.0194	16.4906	0.5578
104.0476	16.2453	0.5536
104.0759	16.5472	0.5588
104.1042	16.2642	0.5540
104.1324	16.5849	0.5594
104.1607	15.7547	0.5452
104.1890	16.8868	0.5645
104.2172	17.8679	0.5806
104.2455	16.2830	0.5543
104.2738	16.6038	0.5597
104.3020	17.1321	0.5685
104.3303	17.4340	0.5735
104.3586	16.6792	0.5610
104.3868	16.1509	0.5520
104.4151	16.4528	0.5572
104.4434	16.2453	0.5536
104.4716	17.0566	0.5673
104.4999	16.8868	0.5645
104.5282	15.9623	0.5488
104.5564	16.0377	0.5501
104.5847	17.0566	0.5673
104.6130	17.3585	0.5723
104.6412	16.8302	0.5635
104.6695	15.8318	0.5440
104.6978	17.0093	0.5639
104.7260	17.5514	0.5728
104.7543	15.9252	0.5456
104.7826	17.6449	0.5743
104.8108	16.3333	0.5500
104.8391	16.8704	0.5589
104.8674	17.0926	0.5626
104.8956	15.7037	0.5393
104.9239	16.2778	0.5490
104.9521	16.1667	0.5472
104.9804	17.2963	0.5660
105.0087	16.6481	0.5552
105.0369	17.7778	0.5738
105.0652	16.4630	0.5522
105.0935	16.7593	0.5571
105.1217	16.9630	0.5605
105.1500	17.5741	0.5705
105.1783	17.1111	0.5629
105.2065	15.7778	0.5405
105.2348	17.7037	0.5726
105.2631	15.9630	0.5437
105.2913	16.4630	0.5522
105.3196	16.1667	0.5472
105.3479	16.6111	0.5546
105.3761	17.1481	0.5635
105.4044	17.2407	0.5650
105.4327	16.5556	0.5537
105.4609	16.4815	0.5525
105.4892	17.5000	0.5693
105.5175	16.3148	0.5497
105.5457	16.3148	0.5497
105.5740	16.2037	0.5478
105.6023	16.7407	0.5568
105.6305	16.5741	0.5540
105.6588	17.6296	0.5714
105.6871	16.7222	0.5565
105.7153	16.5556	0.5537
105.7436	17.0185	0.5614
105.7718	17.3889	0.5675
105.8001	17.2593	0.5653
105.8284	18.0926	0.5788
105.8566	17.2963	0.5660
105.8849	17.0185	0.5614
105.9132	16.7593	0.5571
105.9414	16.1481	0.5468
105.9697	16.6296	0.5549
105.9980	16.7778	0.5574
106.0262	16.3519	0.5503
106.0545	16.4259	0.5515
106.0828	18.1101	0.5765
106.1110	15.9266	0.5406
106.1393	17.1927	0.5617
106.1676	16.6422	0.5526
106.1958	17.4128	0.5652
106.2241	16.5138	0.5505
106.2524	17.2844	0.5632
106.2806	17.1636	0.5586
106.3089	16.9091	0.5545
106.3372	17.2364	0.5598
106.3654	17.8000	0.5689
106.3937	16.8364	0.5533
106.4220	16.9636	0.5554
106.4502	16.9273	0.5548
106.4785	16.8909	0.5542
106.5068	16.5455	0.5485
106.5350	16.0000	0.5394
106.5633	15.5091	0.5310
106.5915	16.2545	0.5436
106.6198	16.9636	0.5554
106.6481	16.6727	0.5506
106.6763	17.0909	0.5574
106.7046	15.9455	0.5384
106.7329	17.1091	0.5577
106.7611	17.2364	0.5598
106.7894	16.8909	0.5542
106.8177	16.6364	0.5500
106.8459	17.3455	0.5616
106.8742	16.7273	0.5515
106.9025	16.3091	0.5445
106.9307	16.4364	0.5467
106.9590	16.4182	0.5464
106.9873	16.6364	0.5500
107.0155	16.7455	0.5518
107.0438	16.9818	0.5557
107.0721	16.8364	0.5533
107.1003	16.1091	0.5412
107.1286	15.4182	0.5295
107.1569	15.6182	0.5329
107.1851	16.1818	0.5424
107.2134	17.1273	0.5580
107.2417	16.0364	0.5400
107.2699	17.1636	0.5586
107.2982	16.3636	0.5455
107.3265	16.2364	0.5433
107.3547	17.2182	0.5595
107.3830	16.9636	0.5554
107.4113	17.1455	0.5583
107.4395	16.1818	0.5424
107.4678	16.8182	0.5530
107.4960	17.1171	0.5554
107.5243	16.4685	0.5447
107.5526	16.5766	0.5465
107.5808	16.0000	0.5369
107.6091	17.1171	0.5554
107.6374	17.6757	0.5643
107.6656	18.3784	0.5754
107.6939	16.8829	0.5515
107.7222	16.2162	0.5405
107.7504	16.9643	0.5504
107.7787	16.3214	0.5399
107.8070	16.6607	0.5454
107.8352	16.4286	0.5416
107.8635	17.1429	0.5533
107.8918	16.9821	0.5507
107.9200	15.8929	0.5327
107.9483	16.6071	0.5446
107.9766	17.0357	0.5516
108.0048	16.0536	0.5354
108.0331	16.6786	0.5457
108.0614	16.3750	0.5408
108.0896	16.7857	0.5475
108.1179	17.0893	0.5524
108.1462	16.9643	0.5504
108.1744	18.0357	0.5675
108.2027	17.5893	0.5604
108.2310	16.8214	0.5481
108.2592	16.8214	0.5481
108.2875	16.2679	0.5390
108.3157	17.0179	0.5513
108.3440	16.3929	0.5410
108.3723	17.4464	0.5582
108.4005	16.3036	0.5396
108.4288	16.4464	0.5419
108.4571	17.2679	0.5553
108.4853	16.1250	0.5366
108.5136	17.3571	0.5567
108.5419	16.3571	0.5405
108.5701	16.1964	0.5378
108.5984	17.4464	0.5582
108.6267	16.9464	0.5501
108.6549	17.1071	0.5527
108.6832	17.1786	0.5539
108.7115	16.9009	0.5518
108.7397	16.7818	0.5524
108.7680	16.6239	0.5523
108.7963	17.0741	0.5623
108.8245	17.3832	0.5700
108.8528	17.1509	0.5689
108.8811	17.4095	0.5759
108.9093	16.1346	0.5570
108.9376	17.3010	0.5796
108.9659	16.1961	0.5635
108.9941	17.1287	0.5824
109.0224	16.8600	0.5807
109.0507	17.8788	0.6010
109.0789	17.3469	0.5950
109.1072	17.2165	0.5958
109.1355	16.6875	0.5896
109.1637	17.3053	0.6036
109.1920	16.4468	0.5916
109.2202	16.2128	0.5873
109.2485	16.3656	0.5933
109.2768	16.9130	0.6064
109.3050	17.3407	0.6173
109.3333	16.3778	0.6033
109.3616	17.1236	0.6203
109.3898	15.9091	0.6013
109.4181	17.8851	0.6412
109.4464	17.1163	0.6309
109.4746	17.2235	0.6366
109.5029	15.9048	0.6154
109.5312	17.4458	0.6484
109.5594	17.2195	0.6481
109.5877	17.9753	0.6662
109.6160	18.1750	0.6741
109.6442	18.3544	0.6817
109.6725	17.0513	0.6612
109.7008	17.9740	0.6833
109.7290	17.7368	0.6832
109.7573	17.5467	0.6840
109.7856	16.9459	0.6768
109.8138	17.0959	0.6844
109.8421	16.6111	0.6793
109.8704	17.5775	0.7037
109.8986	16.8857	0.6946
109.9269	17.8841	0.7200
109.9552	15.8824	0.6835
109.9834	18.0896	0.7348
