1.544427
20.0141	38.5556	2.0698
20.0424	41.7778	2.1545
20.0707	44.7778	2.2305
20.0989	41.7778	2.1545
20.1272	41.5556	2.1488
20.1555	43.2222	2.1915
20.1837	40.3333	2.1170
20.2120	40.5556	2.1228
20.2403	40.3333	2.1170
20.2685	40.5556	2.1228
20.2968	38.1111	2.0578
20.3251	39.7778	2.1023
20.3533	37.5556	2.0428
20.3816	36.4444	2.0123
20.4099	37.8889	2.0518
20.4381	37.8889	2.0518
20.4664	37.4444	2.0397
20.4946	42.4444	2.1716
20.5229	40.3333	2.1170
20.5512	38.6667	2.0728
20.5794	37.1111	2.0306
20.6077	37.2222	2.0337
20.6360	40.1111	2.1111
20.6642	40.0000	2.1082
20.6925	35.6667	1.9907
20.7208	38.3333	2.0638
20.7490	41.8947	2.1000
20.7773	38.2105	2.0055
20.8056	38.6316	2.0166
20.8338	36.2105	1.9523
20.8621	42.0000	2.1026
20.8904	34.2105	1.8977
20.9186	36.1053	1.9495
20.9469	41.6842	2.0947
20.9752	37.3684	1.9833
21.0034	32.4211	1.8474
21.0317	35.6842	1.9381
21.0600	36.4211	1.9580
21.0882	36.7368	1.9665
21.1165	33.5789	1.8801
21.1448	35.3684	1.9295
21.1730	35.6842	1.9381
21.2013	37.7895	1.9945
21.2296	35.8947	1.9438
21.2578	39.7895	2.0465
21.2861	38.9000	1.9723
21.3143	36.9000	1.9209
21.3426	36.5000	1.9105
21.3709	35.8000	1.8921
21.3991	38.9000	1.9723
21.4274	35.4000	1.8815
21.4557	37.0000	1.9235
21.4839	35.4000	1.8815
21.5122	33.6000	1.8330
21.5405	38.4000	1.9596
21.5687	34.9000	1.8682
21.5970	36.8000	1.9183
21.6253	33.1000	1.8193
21.6535	36.6000	1.9131
21.6818	38.2000	1.9545
21.7101	37.5000	1.9365
21.7383	36.4000	1.9079
21.7666	37.3000	1.9313
21.7949	39.2000	1.9799
21.8231	33.6000	1.8330
21.8514	34.4000	1.8547
21.8797	34.3000	1.8520
21.9079	37.8000	1.9442
21.9362	36.4000	1.9079
21.9645	34.3000	1.8520
21.9927	36.4000	1.9079
22.0210	36.4000	1.9079
22.0493	39.5000	1.9875
22.0775	33.4000	1.8276
22.1058	35.6000	1.8868
22.1340	33.0000	1.8166
22.1623	33.5000	1.8303
22.1906	35.7000	1.8894
22.2188	30.5000	1.7464
22.2471	36.1000	1.9000
22.2754	34.4000	1.8547
22.3036	33.6000	1.8330
22.3319	35.7000	1.8894
22.3602	30.5000	1.7464
22.3884	33.6000	1.8330
22.4167	34.5000	1.8574
22.4450	32.0000	1.7889
22.4732	33.2000	1.8221
22.5015	33.9000	1.8412
22.5298	31.7000	1.7804
22.5580	33.6000	1.8330
22.5863	30.7000	1.7521
22.6146	33.7000	1.8358
22.6428	31.0000	1.7607
22.6711	33.9000	1.8412
22.6994	31.9000	1.7861
22.7276	35.9000	1.8947
22.7559	31.7000	1.7804
22.7842	34.4000	1.8547
22.8124	34.4000	1.8547
22.8407	32.6000	1.8055
22.8690	37.0000	1.9235
22.8972	34.1000	1.8466
22.9255	35.5000	1.8841
22.9538	29.8000	1.7263
22.9820	32.6000	1.8055
23.0103	30.8000	1.7550
23.0385	29.6000	1.7205
23.0668	32.1000	1.7916
23.0951	36.2000	1.9026
23.1233	31.8000	1.7833
23.1516	31.1000	1.7635
23.1799	29.9000	1.7292
23.2081	33.4000	1.8276
23.2364	30.4000	1.7436
23.2647	32.3000	1.7972
23.2929	32.4000	1.8000
23.3212	34.7000	1.8628
23.3495	31.1000	1.7635
23.3777	30.8000	1.7550
23.4060	34.0000	1.8439
23.4343	26.7000	1.6340
23.4625	28.6000	1.6912
23.4908	32.5000	1.8028
23.5191	31.6000	1.7776
23.5473	29.0000	1.7029
23.5756	29.3000	1.7117
23.6039	29.8000	1.7263
23.6321	30.3000	1.7407
23.6604	28.4000	1.6852
23.6887	31.9000	1.7861
23.7169	27.5000	1.6583
23.7452	30.3000	1.7407
23.7735	29.4000	1.7146
23.8017	30.8000	1.7550
23.8300	29.6000	1.7205
23.8582	30.5000	1.7464
23.8865	31.5000	1.7748
23.9148	29.3000	1.7117
23.9430	29.7000	1.7234
23.9713	31.3000	1.7692
23.9996	26.4000	1.6248
24.0278	30.1000	1.7349
24.0561	31.2000	1.7664
24.0844	27.1000	1.6462
24.1126	31.0000	1.7607
24.1409	31.4000	1.7720
24.1692	28.8000	1.6971
24.1974	32.1000	1.7916
24.2257	26.3000	1.6217
24.2540	29.5000	1.7176
24.2822	28.0000	1.6733
24.3105	29.8000	1.7263
24.3388	28.7000	1.6941
24.3670	27.1000	1.6462
24.3953	27.6000	1.6613
24.4236	29.8000	1.7263
24.4518	27.8000	1.6673
24.4801	27.1000	1.6462
24.5084	26.3000	1.6217
24.5366	29.2000	1.7088
24.5649	30.9000	1.7578
24.5932	30.6000	1.7493
24.6214	29.6000	1.7205
24.6497	26.1000	1.6155
24.6780	27.7000	1.6643
24.7062	28.0000	1.6733
24.7345	31.7000	1.7804
24.7627	28.4000	1.6852
24.7910	26.9000	1.6401
24.8193	29.7000	1.7234
24.8475	29.7000	1.7234
24.8758	26.8000	1.6371
24.9041	28.1000	1.6763
24.9323	28.6000	1.6912
24.9606	29.2000	1.7088
24.9889	30.4000	1.7436
25.0171	29.0000	1.7029
25.0454	28.2000	1.6793
25.0737	26.0000	1.6125
25.1019	30.5000	1.7464
25.1302	29.3333	1.6714
25.1585	27.4286	1.6162
25.1867	29.1429	1.6660
25.2150	32.8571	1.7690
25.2433	27.0476	1.6050
25.2715	29.7143	1.6822
25.2998	25.6190	1.5620
25.3281	28.0952	1.6358
25.3563	26.3810	1.5851
25.3846	27.9048	1.6302
25.4129	26.8571	1.5993
25.4411	27.8095	1.6274
25.4694	27.4286	1.6162
25.4977	27.4286	1.6162
25.5259	29.6190	1.6795
25.5542	24.6667	1.5327
25.5824	27.6190	1.6218
25.6107	28.4762	1.6468
25.6390	26.0952	1.5765
25.6672	26.3810	1.5851
25.6955	28.1905	1.6385
25.7238	26.0000	1.5374
25.7520	29.1818	1.6288
25.7803	28.4545	1.6083
25.8086	29.3636	1.6338
25.8368	27.7273	1.5877
25.8651	27.2727	1.5746
25.8934	27.7273	1.5877
25.9216	24.3636	1.4882
25.9499	26.3636	1.5481
25.9782	25.3636	1.5185
26.0064	24.7273	1.4993
26.0347	27.0909	1.5693
26.0630	27.2727	1.5746
26.0912	25.0909	1.5103
26.1195	25.5455	1.5239
26.1478	25.6364	1.5266
26.1760	27.3636	1.5772
26.2043	24.8182	1.5021
26.2326	26.4545	1.5508
26.2608	29.4545	1.6364
26.2891	26.9091	1.5641
26.3174	28.3636	1.6058
26.3456	25.6364	1.5266
26.3739	25.4545	1.5212
26.4021	25.0909	1.5103
26.4304	26.6364	1.5561
26.4587	24.8182	1.5021
26.4869	28.4545	1.6083
26.5152	26.8182	1.5614
26.5435	28.8182	1.6186
26.5717	29.4545	1.6364
26.6000	38.7273	1.8763
26.6283	54.5455	2.2268
26.6565	51.5455	2.1647
26.6848	47.9091	2.0870
26.7131	43.7273	1.9938
26.7413	38.8182	1.8785
26.7696	33.5455	1.7463
26.7979	30.8182	1.6738
26.8261	24.7273	1.4993
26.8544	25.2727	1.5158
26.8827	24.5455	1.4938
26.9109	25.4545	1.5212
26.9392	24.0000	1.4771
26.9675	23.4545	1.4602
26.9957	26.2727	1.5455
27.0240	24.6364	1.4966
27.0523	24.3636	1.4882
27.0805	24.5455	1.4938
27.1088	25.1818	1.5130
27.1371	22.2727	1.4230
27.1653	23.8182	1.4715
27.1936	24.1818	1.4827
27.2219	25.3636	1.5185
27.2501	23.5455	1.4630
27.2784	24.8182	1.5021
27.3066	24.3636	1.4882
27.3349	25.2727	1.5158
27.3632	23.0000	1.4460
27.3914	23.3636	1.4574
27.4197	22.1818	1.4200
27.4480	26.6364	1.5561
27.4762	23.0909	1.4489
27.5045	24.4545	1.4910
27.5328	23.4545	1.4602
27.5610	27.1818	1.5720
27.5893	23.7273	1.4687
27.6176	22.5455	1.4316
27.6458	26.2727	1.5455
27.6741	24.8182	1.5021
27.7024	23.8182	1.4715
27.7306	24.8182	1.5021
27.7589	25.0909	1.5103
27.7872	24.9091	1.5048
27.8154	21.1818	1.3877
27.8437	27.5455	1.5824
27.8720	22.7273	1.4374
27.9002	24.5455	1.4938
27.9285	19.9091	1.3453
27.9568	24.9091	1.5048
27.9850	22.5455	1.4316
28.0133	24.2727	1.4855
28.0416	24.3636	1.4882
28.0698	23.2727	1.4545
28.0981	23.9091	1.4743
28.1263	21.4545	1.3966
28.1546	21.9091	1.4113
28.1829	22.7273	1.4374
28.2111	22.0000	1.4142
28.2394	26.2727	1.5455
28.2677	20.2727	1.3576
28.2959	21.7273	1.4054
28.3242	24.5455	1.4938
28.3525	23.0000	1.4460
28.3807	20.9091	1.3787
28.4090	24.4545	1.4910
28.4373	21.7273	1.4054
28.4655	24.8182	1.5021
28.4938	22.4545	1.4287
28.5221	22.4545	1.4287
28.5503	22.0000	1.4142
28.5786	25.8182	1.5320
28.6069	22.6364	1.4345
28.6351	24.4545	1.4910
28.6634	20.3636	1.3606
28.6917	22.0909	1.4171
28.7199	19.5455	1.3330
28.7482	23.0000	1.4460
28.7765	22.1818	1.4200
28.8047	21.6364	1.4025
28.8330	21.8182	1.4084
28.8613	23.3636	1.4574
28.8895	23.0000	1.4460
28.9178	20.3636	1.3606
28.9461	23.0909	1.4489
28.9743	22.2727	1.4230
29.0026	23.4545	1.4602
29.0308	25.3636	1.5185
29.0591	20.5455	1.3667
29.0874	22.2727	1.4230
29.1156	21.0000	1.3817
29.1439	22.1818	1.4200
29.1722	21.3636	1.3936
29.2004	22.3636	1.4259
29.2287	24.4545	1.4910
29.2570	20.6364	1.3697
29.2852	19.3636	1.3268
29.3135	21.6364	1.4025
29.3418	20.4545	1.3636
29.3700	22.0000	1.4142
29.3983	22.3636	1.4259
29.4266	19.4545	1.3299
29.4548	20.8182	1.3757
29.4831	21.5652	1.3694
29.5114	22.0000	1.3831
29.5396	23.9130	1.4420
29.5679	20.0000	1.3188
29.5962	22.3478	1.3940
29.6244	21.9130	1.3804
29.6527	22.3478	1.3940
29.6810	20.7826	1.3443
29.7092	21.3913	1.3639
29.7375	19.5652	1.3043
29.7658	20.5217	1.3359
29.7940	20.2609	1.3273
29.8223	20.2609	1.3273
29.8505	21.4783	1.3666
29.8788	22.2609	1.3913
29.9071	21.7391	1.3749
29.9353	23.0435	1.4155
29.9636	19.0435	1.2868
29.9919	20.9565	1.3499
30.0201	19.7391	1.3101
30.0484	21.0435	1.3527
30.0767	21.4783	1.3666
30.1049	19.0435	1.2868
30.1332	19.3333	1.2693
30.1615	22.1667	1.3591
30.1897	22.2500	1.3617
30.2180	22.4167	1.3668
30.2463	19.3333	1.2693
30.2745	21.4167	1.3359
30.3028	18.4167	1.2388
30.3311	20.3333	1.3017
30.3593	19.5833	1.2775
30.3876	19.9167	1.2883
30.4159	20.2500	1.2990
30.4441	22.0000	1.3540
30.4724	21.2500	1.3307
30.5007	18.1667	1.2304
30.5289	19.9167	1.2883
30.5572	20.4167	1.3044
30.5855	20.1667	1.2964
30.6137	21.0000	1.3229
30.6420	22.3333	1.3642
30.6702	23.3333	1.3944
30.6985	20.4167	1.3044
30.7268	18.5000	1.2416
30.7550	19.0000	1.2583
30.7833	19.9167	1.2883
30.8116	21.5833	1.3411
30.8398	19.6667	1.2802
30.8681	19.6667	1.2802
30.8964	18.5833	1.2444
30.9246	20.7500	1.3150
30.9529	21.1667	1.3281
30.9812	19.1667	1.2638
31.0094	19.4167	1.2720
31.0377	23.0000	1.3844
31.0660	19.5833	1.2775
31.0942	16.1667	1.1607
31.1225	20.4167	1.3044
31.1508	18.4167	1.2388
31.1790	20.0000	1.2910
31.2073	19.7500	1.2829
31.2356	20.6667	1.3123
31.2638	18.3333	1.2360
31.2921	23.3333	1.3944
31.3204	19.4167	1.2720
31.3486	19.6667	1.2802
31.3769	19.5000	1.2748
31.4052	17.6667	1.2134
31.4334	21.5000	1.3385
31.4617	19.3333	1.2693
31.4900	20.7500	1.3150
31.5182	18.1667	1.2304
31.5465	21.5000	1.3385
31.5747	19.0833	1.2611
31.6030	21.4167	1.3359
31.6313	18.7500	1.2500
31.6595	17.6667	1.2134
31.6878	20.5000	1.3070
31.7161	19.4167	1.2720
31.7443	19.1667	1.2638
31.7726	19.5833	1.2775
31.8009	19.0833	1.2611
31.8291	19.7500	1.2829
31.8574	18.1667	1.2304
31.8857	18.5833	1.2444
31.9139	19.4167	1.2720
31.9422	21.7500	1.3463
31.9705	19.1667	1.2638
31.9987	19.0833	1.2611
32.0270	20.8333	1.3176
32.0553	19.3333	1.2693
32.0835	19.6667	1.2802
32.1118	20.5000	1.3070
32.1401	20.0000	1.2910
32.1683	18.5833	1.2444
32.1966	20.2500	1.2990
32.2249	20.1667	1.2964
32.2531	18.3333	1.2360
32.2814	20.3333	1.3017
32.3097	18.8333	1.2528
32.3379	19.5833	1.2775
32.3662	17.7500	1.2162
32.3944	16.5833	1.1756
32.4227	20.1667	1.2964
32.4510	16.8333	1.1844
32.4792	18.8333	1.2528
32.5075	20.9167	1.3202
32.5358	18.3333	1.2360
32.5640	17.7500	1.2162
32.5923	18.3333	1.2360
32.6206	16.5833	1.1756
32.6488	17.6667	1.2134
32.6771	20.2500	1.2990
32.7054	18.3333	1.2360
32.7336	18.5000	1.2416
32.7619	15.9167	1.1517
32.7902	17.4167	1.2047
32.8184	17.1667	1.1961
32.8467	16.5833	1.1756
32.8750	16.9167	1.1873
32.9032	17.3333	1.2019
32.9315	20.6667	1.3123
32.9598	16.6667	1.1785
32.9880	18.2500	1.2332
33.0163	17.6667	1.2134
33.0446	18.3333	1.2360
33.0728	15.5000	1.1365
33.1011	18.8333	1.2528
33.1294	17.9167	1.2219
33.1576	17.5000	1.2076
33.1859	20.0000	1.2910
33.2142	17.0000	1.1902
33.2424	19.4167	1.2720
33.2707	18.7500	1.2500
33.2989	15.8333	1.1487
33.3272	18.1667	1.2304
33.3555	15.6667	1.1426
33.3837	18.3333	1.2360
33.4120	16.2500	1.1637
33.4403	19.3333	1.2693
33.4685	16.1667	1.1607
33.4968	15.8333	1.1487
33.5251	15.5000	1.1365
33.5533	15.0833	1.1211
33.5816	18.2500	1.2332
33.6099	17.5833	1.2105
33.6381	18.1667	1.2304
33.6664	16.6667	1.1785
33.6947	17.5000	1.2076
33.7229	17.1667	1.1961
33.7512	16.5000	1.1726
33.7795	16.3333	1.1667
33.8077	18.1667	1.2304
33.8360	20.0833	1.2937
33.8643	17.6000	1.1866
33.8925	18.4000	1.2133
33.9208	15.2800	1.1056
33.9491	19.0400	1.2342
33.9773	17.9200	1.1973
34.0056	17.0400	1.1676
34.0339	16.0800	1.1342
34.0621	17.2000	1.1730
34.0904	17.6000	1.1866
34.1186	15.8400	1.1257
34.1469	18.0800	1.2027
34.1752	19.4400	1.2471
34.2034	17.6000	1.1866
34.2317	16.4800	1.1482
34.2600	17.3600	1.1785
34.2882	15.5200	1.1143
34.3165	16.4800	1.1482
34.3448	15.9200	1.1285
34.3730	16.7200	1.1565
34.4013	18.5600	1.2185
34.4296	16.8800	1.1621
34.4578	18.4000	1.2133
34.4861	18.8800	1.2290
34.5144	16.7200	1.1565
34.5426	18.5600	1.2185
34.5709	16.2308	1.1174
34.5992	19.1538	1.2138
34.6274	17.8462	1.1717
34.6557	18.0000	1.1767
34.6840	17.5385	1.1615
34.7122	20.8462	1.2663
34.7405	19.0000	1.2089
34.7688	21.7692	1.2940
34.7970	20.3846	1.2522
34.8253	24.6154	1.3760
34.8536	23.0000	1.3301
34.8818	27.2308	1.4473
34.9101	27.2308	1.4473
34.9383	24.4615	1.3717
34.9666	25.3077	1.3953
34.9949	25.3846	1.3974
35.0231	21.3077	1.2803
35.0514	19.1538	1.2138
35.0797	18.6154	1.1966
35.1079	20.8462	1.2663
35.1362	16.6154	1.1305
35.1645	17.7692	1.1691
35.1927	17.5385	1.1615
35.2210	15.8462	1.1041
35.2493	17.2308	1.1513
35.2775	17.0000	1.1435
35.3058	18.0769	1.1792
35.3341	14.6154	1.0603
35.3623	18.2308	1.1842
35.3906	17.4615	1.1590
35.4189	17.4615	1.1590
35.4471	18.1538	1.1817
35.4754	16.6154	1.1305
35.5037	16.6154	1.1305
35.5319	17.0000	1.1435
35.5602	15.7692	1.1014
35.5885	14.9231	1.0714
35.6167	17.7692	1.1691
35.6450	18.9231	1.2065
35.6733	15.5385	1.0933
35.7015	15.0769	1.0769
35.7298	16.9231	1.1410
35.7581	17.3846	1.1564
35.7863	15.9231	1.1067
35.8146	17.1538	1.1487
35.8428	16.1538	1.1147
35.8711	15.6154	1.0960
35.8994	15.3846	1.0879
35.9276	13.9231	1.0349
35.9559	16.5385	1.1279
35.9842	13.7692	1.0292
36.0124	16.6154	1.1305
36.0407	15.3077	1.0851
36.0690	15.3846	1.0879
36.0972	15.3846	1.0879
36.1255	16.3077	1.1200
36.1538	17.4615	1.1590
36.1820	16.6154	1.1305
36.2103	14.7692	1.0659
36.2386	16.2308	1.1174
36.2668	16.0769	1.1121
36.2951	16.7692	1.1358
36.3234	15.2308	1.0824
36.3516	16.2308	1.1174
36.3799	15.0000	1.0742
36.4082	15.1538	1.0797
36.4364	14.0000	1.0377
36.4647	14.4615	1.0547
36.4930	16.5385	1.1279
36.5212	15.6923	1.0987
36.5495	15.9231	1.1067
36.5778	16.0769	1.1121
36.6060	15.0000	1.0742
36.6343	17.0769	1.1461
36.6625	15.3077	1.0851
36.6908	16.1538	1.1147
36.7191	15.4615	1.0906
36.7473	13.3846	1.0147
36.7756	13.7692	1.0292
36.8039	15.5385	1.0933
36.8321	14.7692	1.0659
36.8604	15.2308	1.0824
36.8887	13.1538	1.0059
36.9169	14.7692	1.0659
36.9452	15.1538	1.0797
36.9735	13.3846	1.0147
37.0017	13.8462	1.0320
37.0300	14.0000	1.0377
37.0583	16.5385	1.1279
37.0865	14.5385	1.0575
37.1148	15.0000	1.0742
37.1431	16.1538	1.1147
37.1713	15.0769	1.0769
37.1996	15.0769	1.0769
37.2279	16.0769	1.1121
37.2561	13.4615	1.0176
37.2844	13.3846	1.0147
37.3127	14.7692	1.0659
37.3409	16.6154	1.1305
37.3692	15.8462	1.1041
37.3975	14.7692	1.0659
37.4257	14.5385	1.0575
37.4540	15.5385	1.0933
37.4823	14.6923	1.0631
37.5105	15.6923	1.0987
37.5388	14.7692	1.0659
37.5670	14.4615	1.0547
37.5953	15.1538	1.0797
37.6236	14.7692	1.0659
37.6518	14.7692	1.0659
37.6801	13.7692	1.0292
37.7084	13.8462	1.0320
37.7366	14.3077	1.0491
37.7649	17.5385	1.1615
37.7932	15.3077	1.0851
37.8214	14.8462	1.0686
37.8497	15.0769	1.0769
37.8780	16.2308	1.1174
37.9062	15.3077	1.0851
37.9345	16.3077	1.1200
37.9628	15.3077	1.0851
37.9910	15.3846	1.0879
38.0193	18.3077	1.1867
38.0476	17.0769	1.1461
38.0758	20.5385	1.2569
38.1041	20.0000	1.2403
38.1324	18.2308	1.1842
38.1606	16.4615	1.1253
38.1889	17.3846	1.1564
38.2172	16.7692	1.1358
38.2454	17.1852	1.1283
38.2737	13.4074	0.9966
38.3020	13.5556	1.0021
38.3302	16.1481	1.0937
38.3585	15.2593	1.0632
38.3867	15.0370	1.0554
38.4150	15.2593	1.0632
38.4433	15.5556	1.0734
38.4715	16.1481	1.0937
38.4998	15.1111	1.0580
38.5281	13.4074	0.9966
38.5563	13.9259	1.0157
38.5846	14.4444	1.0344
38.6129	14.9630	1.0528
38.6411	15.3333	1.0657
38.6694	17.4074	1.1355
38.6977	14.8889	1.0502
38.7259	16.8148	1.1160
38.7542	15.3333	1.0657
38.7825	17.1852	1.1283
38.8107	17.4074	1.1355
38.8390	18.2963	1.1642
38.8673	15.5556	1.0734
38.8955	15.0370	1.0554
38.9238	15.8519	1.0836
38.9521	16.0000	1.0887
38.9803	17.7037	1.1452
39.0086	17.6429	1.1226
39.0369	20.0000	1.1952
39.0651	18.1429	1.1384
39.0934	18.0714	1.1361
39.1217	22.7857	1.2758
39.1499	22.2857	1.2617
39.1782	22.2857	1.2617
39.2064	20.2143	1.2016
39.2347	20.1429	1.1995
39.2630	23.3571	1.2917
39.2912	24.2857	1.3171
39.3195	24.6429	1.3267
39.3478	25.2143	1.3420
39.3760	26.5000	1.3758
39.4043	28.2857	1.4214
39.4326	29.7143	1.4569
39.4608	31.4286	1.4983
39.4891	32.7857	1.5303
39.5174	39.8571	1.6873
39.5456	40.0714	1.6918
39.5739	44.0000	1.7728
39.6022	48.0000	1.8516
39.6304	54.7143	1.9769
39.6587	60.0714	2.0714
39.6870	63.2143	2.1249
39.7152	69.5714	2.2292
39.7435	80.3571	2.3958
39.7718	87.7857	2.5041
39.8000	98.9286	2.6583
39.8283	109.1429	2.7921
39.8566	114.0714	2.8545
39.8848	122.9286	2.9632
39.9131	133.5714	3.0888
39.9414	141.5714	3.1800
39.9696	154.5000	3.3220
39.9979	158.5714	3.3655
40.0262	180.5000	3.5907
40.0544	197.7857	3.7587
40.0827	209.1429	3.8651
40.1109	207.2857	3.8479
40.1392	195.6429	3.7382
40.1675	186.5000	3.6499
40.1957	178.5714	3.5714
40.2240	172.4286	3.5095
40.2523	152.0000	3.2950
40.2805	142.6429	3.1920
40.3088	123.8571	2.9744
40.3371	105.7857	2.7488
40.3653	90.0714	2.5365
40.3936	83.0000	2.4349
40.4219	67.2143	2.1911
40.4501	58.8571	2.0504
40.4784	46.5000	1.8225
40.5067	44.9286	1.7914
40.5349	38.0000	1.6475
40.5632	35.0714	1.5828
40.5915	33.2857	1.5419
40.6197	27.4286	1.3997
40.6480	27.3571	1.3979
40.6763	26.8571	1.3851
40.7045	24.1429	1.3132
40.7328	21.3571	1.2351
40.7611	22.2143	1.2597
40.7893	20.0714	1.1974
40.8176	19.5714	1.1824
40.8459	22.0714	1.2556
40.8741	19.3571	1.1759
40.9024	18.2857	1.1429
40.9306	18.2143	1.1406
40.9589	18.8571	1.1606
40.9872	18.2857	1.1429
41.0154	15.8571	1.0643
41.0437	15.9286	1.0667
41.0720	17.5714	1.1203
41.1002	16.3571	1.0809
41.1285	16.1429	1.0738
41.1568	16.0000	1.0690
41.1850	15.2143	1.0425
41.2133	15.2857	1.0449
41.2416	15.5714	1.0546
41.2698	14.0714	1.0025
41.2981	13.3571	0.9768
41.3264	14.0000	1.0000
41.3546	14.7857	1.0277
41.3829	14.6429	1.0227
41.4112	13.2857	0.9742
41.4394	12.2143	0.9340
41.4677	14.5714	1.0202
41.4960	13.5000	0.9820
41.5242	15.0000	1.0351
41.5525	14.5000	1.0177
41.5808	12.6429	0.9503
41.6090	14.8571	1.0302
41.6373	11.9286	0.9231
41.6656	14.2143	1.0076
41.6938	13.7143	0.9897
41.7221	13.8571	0.9949
41.7504	13.0714	0.9663
41.7786	13.9286	0.9974
41.8069	13.2857	0.9742
41.8351	12.2857	0.9368
41.8634	15.5714	1.0546
41.8917	16.2143	1.0762
41.9199	11.9286	0.9231
41.9482	13.3571	0.9768
41.9765	12.8571	0.9583
42.0047	12.5000	0.9449
42.0330	10.7857	0.8777
42.0613	13.4286	0.9794
42.0895	12.9286	0.9610
42.1178	12.7857	0.9556
42.1461	14.0000	1.0000
42.1743	13.9286	0.9974
42.2026	13.7143	0.9897
42.2309	13.0000	0.9636
42.2591	10.9286	0.8835
42.2874	14.5000	1.0177
42.3157	12.1429	0.9313
42.3439	12.2857	0.9368
42.3722	14.1429	1.0051
42.4005	12.0000	0.9258
42.4287	10.7143	0.8748
42.4570	11.7143	0.9147
42.4853	12.2857	0.9368
42.5135	10.6429	0.8719
42.5418	12.7143	0.9530
42.5701	12.4286	0.9422
42.5983	10.6897	0.8586
42.6266	13.6552	0.9704
42.6548	13.3793	0.9606
42.6831	13.1724	0.9531
42.7114	11.6552	0.8966
42.7396	12.3448	0.9227
42.7679	13.3793	0.9606
42.7962	13.7931	0.9753
42.8244	13.4483	0.9631
42.8527	10.6897	0.8586
42.8810	10.9655	0.8696
42.9092	11.1034	0.8751
42.9375	12.2759	0.9201
42.9658	11.8621	0.9045
42.9940	11.5862	0.8939
43.0223	10.6897	0.8586
43.0506	10.6897	0.8586
43.0788	11.7931	0.9018
43.1071	10.8276	0.8641
43.1354	12.4138	0.9253
43.1636	10.9655	0.8696
43.1919	10.9655	0.8696
43.2202	12.0690	0.9123
43.2484	12.0690	0.9123
43.2767	12.4138	0.9253
43.3050	10.8966	0.8669
43.3332	12.7586	0.9380
43.3615	11.3103	0.8832
43.3898	10.6207	0.8558
43.4180	10.5333	0.8380
43.4463	10.8000	0.8485
43.4745	11.4000	0.8718
43.5028	13.0667	0.9333
43.5311	11.6000	0.8794
43.5593	11.4000	0.8718
43.5876	11.0000	0.8563
43.6159	10.7333	0.8459
43.6441	10.7333	0.8459
43.6724	10.0667	0.8192
43.7007	11.2000	0.8641
43.7289	11.3333	0.8692
43.7572	10.8667	0.8511
43.7855	13.4000	0.9452
43.8137	11.5333	0.8769
43.8420	12.2000	0.9018
43.8703	10.4667	0.8353
43.8985	10.8667	0.8511
43.9268	11.0667	0.8589
43.9551	10.3333	0.8300
43.9833	11.4000	0.8718
44.0116	10.7333	0.8459
44.0399	10.2000	0.8246
44.0681	10.5333	0.8380
44.0964	12.4000	0.9092
44.1247	11.4000	0.8718
44.1529	11.8667	0.8894
44.1812	8.4667	0.7513
44.2095	10.6667	0.8433
44.2377	10.3333	0.8300
44.2660	10.6667	0.8433
44.2943	10.9333	0.8537
44.3225	11.1333	0.8615
44.3508	12.2000	0.9018
44.3790	10.0000	0.8165
44.4073	13.2000	0.9381
44.4356	11.4000	0.8718
44.4638	10.0667	0.8192
44.4921	9.8667	0.8110
44.5204	11.8000	0.8869
44.5486	9.8667	0.8110
44.5769	10.3333	0.8300
44.6052	10.8667	0.8511
44.6334	10.4000	0.8327
44.6617	10.8667	0.8511
44.6900	10.9333	0.8537
44.7182	10.6000	0.8406
44.7465	9.8000	0.8083
44.7748	10.6000	0.8406
44.8030	10.6000	0.8406
44.8313	9.1333	0.7803
44.8596	10.4667	0.8353
44.8878	11.2000	0.8641
44.9161	10.4667	0.8353
44.9444	10.6000	0.8406
44.9726	9.9333	0.8138
45.0009	10.8000	0.8485
45.0292	10.7333	0.8459
45.0574	10.2667	0.8273
45.0857	10.7333	0.8459
45.1140	9.9333	0.8138
45.1422	10.3333	0.8300
45.1705	10.7333	0.8459
45.1987	12.7333	0.9214
45.2270	8.7333	0.7630
45.2553	9.4667	0.7944
45.2835	10.6667	0.8433
45.3118	10.2667	0.8273
45.3401	9.4667	0.7944
45.3683	10.6667	0.8433
45.3966	9.8667	0.8110
45.4249	9.0000	0.7746
45.4531	10.7333	0.8459
45.4814	8.9333	0.7717
45.5097	10.3333	0.8300
45.5379	10.4000	0.8327
45.5662	10.3333	0.8300
45.5945	10.5333	0.8380
45.6227	11.0667	0.8589
45.6510	10.0667	0.8192
45.6793	11.2667	0.8667
45.7075	9.3333	0.7888
45.7358	11.6667	0.8819
45.7641	9.3333	0.7888
45.7923	9.5333	0.7972
45.8206	8.9333	0.7717
45.8489	11.0667	0.8589
45.8771	9.5333	0.7972
45.9054	9.6000	0.8000
45.9337	10.4667	0.8353
45.9619	11.7333	0.8844
45.9902	11.4000	0.8718
46.0184	8.6000	0.7572
46.0467	9.4000	0.7916
46.0750	9.6000	0.8000
46.1032	9.6667	0.8028
46.1315	10.2000	0.8246
46.1598	9.4667	0.7944
46.1880	8.7333	0.7630
46.2163	9.6667	0.8028
46.2446	9.5333	0.7972
46.2728	10.2000	0.8246
46.3011	11.4000	0.8718
46.3294	10.2000	0.8246
46.3576	11.0667	0.8589
46.3859	9.2000	0.7832
46.4142	9.3333	0.7888
46.4424	9.7333	0.8055
46.4707	8.7333	0.7630
46.4990	9.8667	0.8110
46.5272	11.0000	0.8563
46.5555	10.9333	0.8537
46.5838	9.2903	0.7742
46.6120	10.4516	0.8212
46.6403	9.4194	0.7796
46.6686	9.4839	0.7822
46.6968	9.6774	0.7902
46.7251	11.4839	0.8608
46.7534	10.0000	0.8032
46.7816	9.7419	0.7928
46.8099	9.1613	0.7688
46.8382	9.6774	0.7902
46.8664	8.9677	0.7606
46.8947	9.6774	0.7902
46.9229	9.0968	0.7661
46.9512	10.3226	0.8161
46.9795	10.1935	0.8110
47.0077	8.0000	0.7184
47.0360	8.4516	0.7384
47.0643	9.6774	0.7902
47.0925	10.8387	0.8362
47.1208	9.8065	0.7954
47.1491	9.7419	0.7928
47.1773	10.0000	0.8032
47.2056	7.9355	0.7155
47.2339	8.4516	0.7384
47.2621	9.8065	0.7954
47.2904	9.2258	0.7715
47.3187	9.8065	0.7954
47.3469	7.5484	0.6978
47.3752	9.5484	0.7849
47.4035	8.4516	0.7384
47.4317	9.5484	0.7849
47.4600	10.0625	0.7930
47.4883	9.1875	0.7578
47.5165	10.0625	0.7930
47.5448	8.7500	0.7395
47.5731	9.8125	0.7831
47.6013	8.5625	0.7315
47.6296	11.1250	0.8339
47.6579	10.0000	0.7906
47.6861	8.5000	0.7289
47.7144	8.8750	0.7448
47.7426	8.8125	0.7421
47.7709	9.9375	0.7881
47.7992	8.7500	0.7395
47.8274	8.3125	0.7208
47.8557	10.3750	0.8053
47.8840	9.8125	0.7831
47.9122	8.5000	0.7289
47.9405	9.4375	0.7680
47.9688	11.2500	0.8385
47.9970	8.1250	0.7126
48.0253	9.3125	0.7629
48.0536	9.1250	0.7552
48.0818	9.0000	0.7500
48.1101	10.3125	0.8028
48.1384	9.3125	0.7629
48.1666	9.4375	0.7680
48.1949	9.0000	0.7500
48.2232	7.6875	0.6932
48.2514	9.2500	0.7603
48.2797	9.3125	0.7629
48.3080	9.1875	0.7578
48.3362	9.5625	0.7731
48.3645	9.2500	0.7603
48.3928	7.9375	0.7043
48.4210	8.9375	0.7474
48.4493	10.5625	0.8125
48.4776	8.5625	0.7315
48.5058	9.5625	0.7731
48.5341	9.5625	0.7731
48.5624	8.7500	0.7395
48.5906	9.3125	0.7629
48.6189	8.7500	0.7395
48.6471	9.6875	0.7781
48.6754	8.4375	0.7262
48.7037	9.1250	0.7552
48.7319	8.4375	0.7262
48.7602	8.0000	0.7071
48.7885	9.7500	0.7806
48.8167	9.2500	0.7603
48.8450	9.8750	0.7856
48.8733	7.9375	0.7043
48.9015	7.9375	0.7043
48.9298	8.3750	0.7235
48.9581	8.7500	0.7395
48.9863	8.1875	0.7153
49.0146	8.0625	0.7099
49.0429	7.8125	0.6988
49.0711	8.6250	0.7342
49.0994	9.3125	0.7629
49.1277	8.8125	0.7421
49.1559	10.1875	0.7979
49.1842	10.0000	0.7906
49.2125	10.0000	0.7906
49.2407	9.1250	0.7552
49.2690	8.1250	0.7126
49.2973	8.4375	0.7262
49.3255	8.3125	0.7208
49.3538	7.4375	0.6818
49.3821	7.2500	0.6731
49.4103	10.3125	0.8028
49.4386	8.8125	0.7421
49.4668	8.8750	0.7448
49.4951	8.3750	0.7235
49.5234	9.3125	0.7629
49.5516	8.8125	0.7421
49.5799	8.2500	0.7181
49.6082	8.5000	0.7289
49.6364	7.5625	0.6875
49.6647	8.8750	0.7448
49.6930	8.1875	0.7153
49.7212	9.3750	0.7655
49.7495	8.2500	0.7181
49.7778	9.2500	0.7603
49.8060	9.1875	0.7578
49.8343	8.6250	0.7342
49.8626	9.3750	0.7655
49.8908	8.7500	0.7395
49.9191	8.7500	0.7395
49.9474	9.8750	0.7856
49.9756	9.3125	0.7629
50.0039	9.1250	0.7552
50.0322	9.3125	0.7629
50.0604	8.3750	0.7235
50.0887	7.5625	0.6875
50.1170	7.5625	0.6875
50.1452	8.4375	0.7262
50.1735	7.5625	0.6875
50.2018	7.7500	0.6960
50.2300	7.7500	0.6960
50.2583	8.1875	0.7153
50.2865	7.1875	0.6702
50.3148	7.5000	0.6847
50.3431	7.6875	0.6932
50.3713	8.5625	0.7315
50.3996	8.6250	0.7342
50.4279	8.6875	0.7369
50.4561	7.7500	0.6960
50.4844	9.0000	0.7500
50.5127	7.6875	0.6932
50.5409	8.7273	0.7273
50.5692	8.4242	0.7145
50.5975	8.6061	0.7222
50.6257	8.7879	0.7298
50.6540	8.3636	0.7120
50.6823	8.8485	0.7323
50.7105	9.2727	0.7497
50.7388	8.9091	0.7348
50.7671	7.3333	0.6667
50.7953	8.2424	0.7068
50.8236	8.3030	0.7094
50.8519	7.2121	0.6611
50.8801	7.9394	0.6937
50.9084	7.7576	0.6857
50.9367	8.5455	0.7197
50.9649	8.4242	0.7145
50.9932	7.5758	0.6776
51.0215	8.4848	0.7171
51.0497	8.0000	0.6963
51.0780	7.8182	0.6884
51.1063	7.9394	0.6937
51.1345	7.6970	0.6830
51.1628	9.2121	0.7472
51.1910	7.5758	0.6776
51.2193	7.9394	0.6937
51.2476	9.2121	0.7472
51.2758	7.8182	0.6884
51.3041	8.1212	0.7016
51.3324	7.3939	0.6694
51.3606	8.8485	0.7323
51.3889	9.1515	0.7447
51.4172	7.6970	0.6830
51.4454	8.0606	0.6989
51.4737	8.3529	0.7010
51.5020	8.0000	0.6860
51.5302	8.1765	0.6935
51.5585	9.8235	0.7602
51.5868	8.8235	0.7204
51.6150	9.2353	0.7371
51.6433	8.1765	0.6935
51.6716	8.8235	0.7204
51.6998	7.2353	0.6524
51.7281	7.8824	0.6809
51.7564	6.9412	0.6390
51.7846	8.1765	0.6935
51.8129	9.5882	0.7510
51.8412	9.0588	0.7300
51.8694	7.3529	0.6577
51.8977	8.8824	0.7228
51.9260	8.0588	0.6885
51.9542	7.8235	0.6784
51.9825	9.4118	0.7441
52.0107	8.0000	0.6860
52.0390	7.4706	0.6629
52.0673	8.2941	0.6985
52.0955	7.0000	0.6417
52.1238	8.8235	0.7204
52.1521	6.7059	0.6281
52.1803	7.4706	0.6629
52.2086	9.9412	0.7647
52.2369	8.9412	0.7252
52.2651	9.3529	0.7417
52.2934	9.3529	0.7417
52.3217	9.5882	0.7510
52.3499	7.5882	0.6681
52.3782	9.4118	0.7441
52.4065	8.4118	0.7034
52.4347	8.5294	0.7083
52.4630	9.2941	0.7394
52.4913	11.2941	0.8151
52.5195	11.5294	0.8235
52.5478	11.3529	0.8172
52.5761	12.7059	0.8645
52.6043	13.2353	0.8824
52.6326	13.3529	0.8863
52.6609	12.2941	0.8504
52.6891	12.3529	0.8524
52.7174	11.5882	0.8256
52.7457	11.7647	0.8319
52.7739	10.6471	0.7914
52.8022	10.0588	0.7692
52.8305	10.1176	0.7715
52.8587	10.1765	0.7737
52.8870	7.8824	0.6809
52.9152	9.8824	0.7624
52.9435	8.7647	0.7180
52.9718	8.2941	0.6985
53.0000	6.5882	0.6225
53.0283	7.5882	0.6681
53.0566	8.7647	0.7180
53.0848	8.2941	0.6985
53.1131	8.9412	0.7252
53.1414	8.1176	0.6910
53.1696	8.8824	0.7228
53.1979	6.7647	0.6308
53.2262	8.2353	0.6960
53.2544	8.1765	0.6935
53.2827	8.2941	0.6985
53.3110	7.8824	0.6809
53.3392	7.5882	0.6681
53.3675	8.5882	0.7108
53.3958	8.2353	0.6960
53.4240	7.9412	0.6835
53.4523	7.1176	0.6471
53.4806	7.0000	0.6417
53.5088	7.7647	0.6758
53.5371	6.9412	0.6390
53.5654	6.5294	0.6197
53.5936	6.5882	0.6225
53.6219	8.5294	0.7083
53.6502	7.7059	0.6733
53.6784	9.6471	0.7533
53.7067	7.3529	0.6577
53.7349	7.3529	0.6577
53.7632	8.0588	0.6885
53.7915	7.6471	0.6707
53.8197	7.8824	0.6809
53.8480	8.1765	0.6935
53.8763	7.2941	0.6550
53.9045	7.1176	0.6471
53.9328	7.1765	0.6497
53.9611	7.5294	0.6655
53.9893	7.4118	0.6603
54.0176	8.0588	0.6885
54.0459	7.1176	0.6471
54.0741	8.8235	0.7204
54.1024	8.1765	0.6935
54.1307	7.7647	0.6758
54.1589	9.1176	0.7323
54.1872	7.8235	0.6784
54.2155	8.6471	0.7132
54.2437	6.9412	0.6390
54.2720	7.0000	0.6417
54.3003	6.7647	0.6308
54.3285	9.2353	0.7371
54.3568	8.2353	0.6960
54.3851	7.9412	0.6835
54.4133	7.8235	0.6784
54.4416	7.8824	0.6809
54.4699	6.5882	0.6225
54.4981	7.0000	0.6417
54.5264	7.0857	0.6363
54.5546	8.5714	0.6999
54.5829	7.8857	0.6713
54.6112	8.4000	0.6928
54.6394	9.4286	0.7340
54.6677	8.7429	0.7068
54.6960	8.2286	0.6857
54.7242	6.3429	0.6020
54.7525	8.3429	0.6905
54.7808	7.6571	0.6615
54.8090	8.7429	0.7068
54.8373	7.4857	0.6540
54.8656	9.0286	0.7183
54.8938	9.2000	0.7251
54.9221	9.2000	0.7251
54.9504	11.1429	0.7980
54.9786	8.6857	0.7045
55.0069	9.7143	0.7451
55.0352	9.5429	0.7384
55.0634	8.6857	0.7045
55.0917	9.7714	0.7472
55.1200	8.6857	0.7045
55.1482	9.2571	0.7273
55.1765	7.7143	0.6639
55.2048	9.3143	0.7296
55.2330	8.5143	0.6975
55.2613	9.3714	0.7318
55.2896	7.7714	0.6664
55.3178	8.1143	0.6809
55.3461	7.3714	0.6490
55.3744	6.8571	0.6260
55.4026	8.0000	0.6761
55.4309	6.5143	0.6101
55.4591	8.1714	0.6833
55.4874	7.0286	0.6337
55.5157	7.8889	0.6620
55.5439	7.4444	0.6431
55.5722	7.6111	0.6503
55.6005	8.2222	0.6759
55.6287	6.8333	0.6161
55.6570	6.4444	0.5984
55.6853	7.8889	0.6620
55.7135	6.0556	0.5800
55.7418	7.2222	0.6334
55.7701	7.8333	0.6597
55.7983	7.9444	0.6643
55.8266	7.8333	0.6597
55.8549	7.4444	0.6431
55.8831	7.5556	0.6479
55.9114	7.7778	0.6573
55.9397	7.7222	0.6550
55.9679	9.2222	0.7158
55.9962	8.4444	0.6849
56.0245	7.1667	0.6310
56.0527	6.8889	0.6186
56.0810	8.1667	0.6736
56.1093	8.7222	0.6961
56.1375	7.8333	0.6597
56.1658	8.0556	0.6690
56.1941	8.5556	0.6894
56.2223	8.5000	0.6872
56.2506	8.6667	0.6939
56.2788	8.1111	0.6713
56.3071	9.4444	0.7244
56.3354	8.2222	0.6759
56.3636	7.6111	0.6503
56.3919	9.0000	0.7071
56.4202	8.1667	0.6736
56.4484	8.0000	0.6667
56.4767	8.8333	0.7005
56.5050	7.6111	0.6503
56.5332	8.5556	0.6894
56.5615	9.1111	0.7115
56.5898	10.3333	0.7577
56.6180	9.2778	0.7179
56.6463	7.9444	0.6643
56.6746	7.8889	0.6620
56.7028	9.1111	0.7115
56.7311	9.3333	0.7201
56.7594	8.6667	0.6939
56.7876	8.3889	0.6827
56.8159	8.3333	0.6804
56.8442	8.2778	0.6781
56.8724	11.2778	0.7915
56.9007	13.8889	0.8784
56.9290	11.7222	0.8070
56.9572	11.7222	0.8070
56.9855	10.0556	0.7474
57.0138	11.0000	0.7817
57.0420	10.6667	0.7698
57.0703	12.3889	0.8296
57.0986	11.1667	0.7876
57.1268	11.6111	0.8032
57.1551	12.3889	0.8296
57.1833	12.1667	0.8221
57.2116	13.1111	0.8535
57.2399	13.7222	0.8731
57.2681	13.0556	0.8517
57.2964	14.6111	0.9010
57.3247	16.4444	0.9558
57.3529	16.0000	0.9428
57.3812	16.7778	0.9655
57.4095	20.8333	1.0758
57.4377	18.7222	1.0199
57.4660	18.0556	1.0015
57.4943	19.9444	1.0526
57.5225	21.6111	1.0957
57.5508	21.6667	1.0971
57.5791	22.6111	1.1208
57.6073	21.1111	1.0830
57.6356	22.1111	1.1083
57.6639	21.7778	1.0999
57.6921	23.9444	1.1534
57.7204	26.1111	1.2044
57.7487	24.8333	1.1746
57.7769	25.0000	1.1785
57.8052	27.6111	1.2385
57.8335	29.5556	1.2814
57.8617	30.0556	1.2922
57.8900	30.5556	1.3029
57.9183	31.4444	1.3217
57.9465	35.8333	1.4109
57.9748	35.6111	1.4066
58.0030	36.9444	1.4326
58.0313	40.8889	1.5072
58.0596	37.1667	1.4369
58.0878	34.4444	1.3833
58.1161	31.3889	1.3205
58.1444	31.7222	1.3275
58.1726	28.4444	1.2571
58.2009	30.0556	1.2922
58.2292	26.0000	1.2019
58.2574	20.1667	1.0585
58.2857	19.9444	1.0526
58.3140	20.0000	1.0541
58.3422	18.2778	1.0077
58.3705	17.6111	0.9891
58.3988	16.8333	0.9670
58.4270	14.8889	0.9095
58.4553	13.2222	0.8571
58.4836	13.2432	0.8461
58.5118	12.8649	0.8339
58.5401	11.6216	0.7926
58.5684	11.0270	0.7720
58.5966	10.1622	0.7412
58.6249	10.4324	0.7509
58.6532	9.8378	0.7292
58.6814	9.4595	0.7151
58.7097	8.5946	0.6816
58.7380	9.6757	0.7232
58.7662	9.5135	0.7171
58.7945	8.3243	0.6708
58.8227	8.7027	0.6859
58.8510	8.9730	0.6964
58.8793	9.5135	0.7171
58.9075	8.0000	0.6576
58.9358	8.2162	0.6664
58.9641	7.3514	0.6304
58.9923	7.0270	0.6163
59.0206	7.7297	0.6464
59.0489	8.1622	0.6642
59.0771	7.5135	0.6373
59.1054	8.1081	0.6620
59.1337	7.5676	0.6396
59.1619	9.0270	0.6985
59.1902	8.0541	0.6598
59.2185	8.6486	0.6837
59.2467	7.1351	0.6210
59.2750	8.3784	0.6730
59.3033	7.4595	0.6350
59.3315	8.1622	0.6642
59.3598	8.9730	0.6964
59.3881	7.6216	0.6419
59.4163	6.4324	0.5897
59.4446	7.6216	0.6419
59.4729	7.8919	0.6531
59.5011	8.1081	0.6620
59.5294	7.5263	0.6294
59.5577	6.4211	0.5813
59.5859	7.3684	0.6227
59.6142	6.7895	0.5978
59.6425	8.2105	0.6574
59.6707	6.8947	0.6024
59.6990	7.6316	0.6338
59.7272	8.1053	0.6531
59.7555	7.9474	0.6467
59.7838	7.1053	0.6115
59.8120	7.9474	0.6467
59.8403	7.1579	0.6138
59.8686	6.1053	0.5669
59.8968	7.7368	0.6381
59.9251	8.1053	0.6531
59.9534	7.8421	0.6425
59.9816	8.0000	0.6489
60.0099	7.7368	0.6381
60.0382	7.3684	0.6227
60.0664	7.0526	0.6093
60.0947	7.7368	0.6381
60.1230	6.7895	0.5978
60.1512	7.5263	0.6294
60.1795	7.6316	0.6338
60.2078	7.1053	0.6115
60.2360	7.3684	0.6227
60.2643	8.0526	0.6510
60.2926	8.3158	0.6616
60.3208	8.8947	0.6842
60.3491	10.0000	0.7255
60.3774	9.5789	0.7100
60.4056	8.5789	0.6720
60.4339	8.5789	0.6720
60.4622	8.9474	0.6862
60.4904	8.4737	0.6678
60.5187	8.7895	0.6801
60.5469	9.1053	0.6923
60.5752	8.1579	0.6553
60.6035	8.3684	0.6637
60.6317	6.5789	0.5884
60.6600	8.3684	0.6637
60.6883	7.5789	0.6316
60.7165	6.7368	0.5955
60.7448	7.0000	0.6070
60.7731	8.4211	0.6657
60.8013	7.4211	0.6250
60.8296	6.9474	0.6047
60.8579	6.3684	0.5789
60.8861	7.3684	0.6227
60.9144	5.5263	0.5393
60.9427	7.5789	0.6316
60.9709	7.0000	0.6070
60.9992	6.5789	0.5884
61.0275	6.6316	0.5908
61.0557	7.4211	0.6250
61.0840	5.9474	0.5595
61.1123	6.5789	0.5884
61.1405	7.7895	0.6403
61.1688	7.5263	0.6294
61.1971	6.7895	0.5978
61.2253	6.3684	0.5789
61.2536	6.8947	0.6024
61.2819	6.3684	0.5789
61.3101	7.2632	0.6183
61.3384	6.9474	0.6047
61.3667	7.1053	0.6115
61.3949	7.4211	0.6250
61.4232	6.6316	0.5908
61.4514	7.0000	0.6070
61.4797	8.1053	0.6531
61.5080	8.1579	0.6553
61.5362	7.3158	0.6205
61.5645	7.7368	0.6381
61.5928	6.0000	0.5620
61.6210	6.6316	0.5908
61.6493	6.2632	0.5741
61.6776	6.5789	0.5884
61.7058	7.9474	0.6467
61.7341	6.4737	0.5837
61.7624	7.1579	0.6138
61.7906	7.1579	0.6138
61.8189	6.4211	0.5813
61.8472	8.1053	0.6531
61.8754	7.2105	0.6160
61.9037	8.5263	0.6699
61.9320	8.1579	0.6553
61.9602	7.3158	0.6205
61.9885	8.8947	0.6842
62.0168	8.8947	0.6842
62.0450	10.3684	0.7387
62.0733	10.8947	0.7572
62.1016	9.0000	0.6882
62.1298	9.0000	0.6882
62.1581	8.7895	0.6801
62.1864	9.7368	0.7159
62.2146	9.0526	0.6903
62.2429	8.5789	0.6720
62.2711	7.9474	0.6467
62.2994	6.3684	0.5789
62.3277	7.3684	0.6227
62.3559	7.7895	0.6403
62.3842	6.6316	0.5908
62.4125	6.3684	0.5789
62.4407	7.2632	0.6183
62.4690	6.8205	0.5914
62.4973	5.9487	0.5523
62.5255	7.2821	0.6111
62.5538	6.9744	0.5980
62.5821	6.9744	0.5980
62.6103	7.5897	0.6239
62.6386	7.1282	0.6046
62.6669	6.4103	0.5734
62.6951	7.3333	0.6132
62.7234	7.4359	0.6175
62.7517	7.1282	0.6046
62.7799	7.2821	0.6111
62.8082	6.8718	0.5936
62.8365	7.0769	0.6024
62.8647	5.1795	0.5154
62.8930	7.4359	0.6175
62.9213	6.6154	0.5825
62.9495	6.6667	0.5847
62.9778	6.3077	0.5687
63.0061	7.9487	0.6385
63.0343	6.9744	0.5980
63.0626	6.8205	0.5914
63.0908	6.6667	0.5847
63.1191	5.7949	0.5451
63.1474	6.7692	0.5892
63.1756	6.9231	0.5958
63.2039	6.4103	0.5734
63.2322	7.3333	0.6132
63.2604	7.4359	0.6175
63.2887	7.7436	0.6302
63.3170	7.3333	0.6132
63.3452	5.7949	0.5451
63.3735	7.0769	0.6024
63.4018	6.6154	0.5825
63.4300	7.0256	0.6002
63.4583	6.2564	0.5664
63.4866	6.2564	0.5664
63.5148	6.4103	0.5734
63.5431	5.5897	0.5354
63.5714	7.0500	0.5937
63.5996	6.1000	0.5523
63.6279	7.0732	0.5874
63.6562	7.3659	0.5994
63.6844	7.3171	0.5974
63.7127	7.4146	0.6014
63.7410	6.7317	0.5730
63.7692	6.9268	0.5813
63.7975	6.2439	0.5519
63.8258	6.2439	0.5519
63.8540	7.2683	0.5954
63.8823	7.4146	0.6014
63.9106	6.9268	0.5813
63.9388	5.8537	0.5344
63.9671	8.1463	0.6304
63.9953	6.3415	0.5562
64.0236	6.8780	0.5792
64.0519	6.2927	0.5540
64.0801	6.6829	0.5710
64.1084	6.4878	0.5626
64.1367	6.4390	0.5604
64.1649	7.2195	0.5934
64.1932	7.3659	0.5994
64.2215	5.5610	0.5208
64.2497	6.7805	0.5751
64.2780	6.5366	0.5647
64.3063	6.0000	0.5410
64.3345	6.3415	0.5562
64.3628	6.9756	0.5833
64.3911	7.4634	0.6034
64.4193	6.3902	0.5583
64.4476	7.9024	0.6209
64.4759	7.3171	0.5974
64.5041	6.0488	0.5432
64.5324	6.0488	0.5432
64.5607	7.4146	0.6014
64.5889	6.9268	0.5813
64.6172	6.6829	0.5710
64.6455	6.5366	0.5647
64.6737	6.5854	0.5668
64.7020	6.9268	0.5813
64.7303	6.7805	0.5751
64.7585	6.4390	0.5604
64.7868	7.0476	0.5793
64.8150	6.0465	0.5303
64.8433	6.7442	0.5601
64.8716	6.5116	0.5503
64.8998	7.1163	0.5753
64.9281	6.1860	0.5364
64.9564	5.5349	0.5074
64.9846	6.6512	0.5562
65.0129	6.5581	0.5523
65.0412	6.7442	0.5601
65.0694	6.5581	0.5523
65.0977	7.0698	0.5734
65.1260	6.9302	0.5677
65.1542	7.2558	0.5809
65.1825	5.8140	0.5200
65.2108	6.0465	0.5303
65.2390	6.3721	0.5444
65.2673	6.3721	0.5444
65.2956	6.6977	0.5581
65.3238	6.6047	0.5543
65.3521	5.5814	0.5095
65.3804	7.3023	0.5828
65.4086	6.5116	0.5503
65.4369	6.6977	0.5581
65.4652	7.0698	0.5734
65.4934	6.1395	0.5344
65.5217	8.3721	0.6240
65.5500	6.5581	0.5523
65.5782	7.7209	0.5993
65.6065	7.3953	0.5865
65.6348	6.1860	0.5364
65.6630	6.0930	0.5323
65.6913	7.0233	0.5715
65.7195	6.1395	0.5344
65.7478	6.2326	0.5384
65.7761	5.6744	0.5137
65.8043	5.7209	0.5158
65.8326	6.7442	0.5601
65.8609	6.0000	0.5283
65.8891	6.6047	0.5543
65.9174	7.3023	0.5828
65.9457	7.6279	0.5956
65.9739	7.2273	0.5732
66.0022	5.5455	0.5021
66.0305	7.1111	0.5622
66.0587	5.5556	0.4969
66.0870	7.5111	0.5778
66.1153	6.4444	0.5352
66.1435	5.8222	0.5087
66.1718	6.2667	0.5277
66.2001	6.6222	0.5425
66.2283	7.3778	0.5726
66.2566	6.5778	0.5407
66.2849	6.4889	0.5370
66.3131	6.0000	0.5164
66.3414	6.9333	0.5551
66.3697	6.6222	0.5425
66.3979	7.6889	0.5846
66.4262	6.4000	0.5333
66.4545	6.9333	0.5551
66.4827	7.2444	0.5674
66.5110	6.5333	0.5389
66.5392	7.1556	0.5639
66.5675	7.6889	0.5846
66.5958	7.9556	0.5946
66.6240	8.1333	0.6012
66.6523	8.0444	0.5979
66.6806	8.1333	0.6012
66.7088	7.8222	0.5896
66.7371	7.4222	0.5743
66.7654	8.3111	0.6078
66.7936	8.8889	0.6285
66.8219	8.8000	0.6254
66.8502	8.2222	0.6045
66.8784	6.9333	0.5551
66.9067	7.3333	0.5709
66.9350	7.9556	0.5946
66.9632	6.8444	0.5515
66.9915	6.8000	0.5497
67.0198	7.7333	0.5863
67.0480	8.3111	0.6078
67.0763	7.5111	0.5778
67.1046	7.1556	0.5639
67.1328	7.7778	0.5879
67.1611	8.9565	0.6240
67.1894	7.8696	0.5849
67.2176	8.8696	0.6210
67.2459	9.4043	0.6326
67.2742	7.9149	0.5803
67.3024	6.3830	0.5212
67.3307	7.3617	0.5597
67.3589	8.4255	0.5988
67.3872	6.7660	0.5366
67.4155	7.4043	0.5613
67.4437	8.4681	0.6003
67.4720	6.9787	0.5449
67.5003	7.8298	0.5772
67.5285	7.1064	0.5499
67.5568	5.5319	0.4852
67.5851	6.7234	0.5349
67.6133	7.2340	0.5548
67.6416	7.4043	0.5613
67.6699	6.2553	0.5159
67.6981	6.7660	0.5366
67.7264	5.6170	0.4889
67.7547	7.7021	0.5725
67.7829	6.4681	0.5246
67.8112	7.5745	0.5677
67.8395	6.8511	0.5399
67.8677	6.7660	0.5366
67.8960	6.6383	0.5315
67.9243	5.9149	0.5017
67.9525	7.2766	0.5565
67.9808	6.4255	0.5229
68.0091	7.0213	0.5466
68.0373	7.5319	0.5661
68.0656	5.7447	0.4944
68.0939	5.4043	0.4796
68.1221	6.4255	0.5229
68.1504	6.4255	0.5229
68.1787	6.3830	0.5212
68.2069	6.7660	0.5366
68.2352	6.7234	0.5349
68.2634	6.7234	0.5349
68.2917	5.7021	0.4926
68.3200	6.9167	0.5368
68.3482	6.3333	0.5137
68.3765	7.1250	0.5449
68.4048	7.0000	0.5401
68.4330	7.7500	0.5683
68.4613	6.5417	0.5221
68.4896	5.8776	0.4898
68.5178	5.6735	0.4812
68.5461	6.1633	0.5016
68.5744	7.4286	0.5506
68.6026	6.1224	0.4999
68.6309	6.5306	0.5163
68.6592	6.2041	0.5032
68.6874	6.7755	0.5259
68.7157	6.8980	0.5306
68.7440	5.9592	0.4932
68.7722	6.6531	0.5211
68.8005	6.7755	0.5259
68.8288	5.6735	0.4812
68.8570	6.8163	0.5275
68.8853	7.4286	0.5506
68.9136	7.1020	0.5384
68.9418	7.5918	0.5567
68.9701	7.3878	0.5491
68.9984	7.0612	0.5369
69.0266	6.6122	0.5195
69.0549	7.3469	0.5476
69.0831	7.3469	0.5476
69.1114	5.7959	0.4864
69.1397	6.4082	0.5114
69.1679	7.1020	0.5384
69.1962	7.7959	0.5641
69.2245	7.3061	0.5461
69.2527	8.1224	0.5758
69.2810	6.2041	0.5032
69.3093	6.8163	0.5275
69.3375	7.4694	0.5522
69.3658	6.8980	0.5306
69.3941	7.3469	0.5476
69.4223	6.8163	0.5275
69.4506	6.5714	0.5179
69.4789	6.0408	0.4966
69.5071	7.3600	0.5426
69.5354	6.8800	0.5246
69.5637	7.0000	0.5292
69.5919	6.7600	0.5200
69.6202	6.6800	0.5169
69.6485	6.7200	0.5185
69.6767	6.8000	0.5215
69.7050	8.2353	0.5683
69.7333	6.0784	0.4882
69.7615	6.9804	0.5232
69.7898	6.9020	0.5203
69.8181	7.2549	0.5334
69.8463	6.3922	0.5007
69.8746	7.1373	0.5290
69.9028	6.6667	0.5113
69.9311	6.5882	0.5083
69.9594	6.9412	0.5217
69.9876	7.3333	0.5363
70.0159	6.7059	0.5128
70.0442	6.2745	0.4960
70.0724	6.8627	0.5188
70.1007	7.1765	0.5305
70.1290	7.3725	0.5377
70.1572	7.0196	0.5247
70.1855	7.3333	0.5363
70.2138	7.4902	0.5420
70.2420	6.6275	0.5098
70.2703	7.5294	0.5434
70.2986	7.9608	0.5587
70.3268	6.8235	0.5173
70.3551	7.6471	0.5476
70.3834	7.8039	0.5532
70.4116	7.5686	0.5448
70.4399	6.9020	0.5203
70.4682	7.1765	0.5305
70.4964	6.7059	0.5128
70.5247	7.7255	0.5504
70.5530	6.6667	0.5113
70.5812	7.8824	0.5560
70.6095	5.9216	0.4819
70.6378	7.1373	0.5290
70.6660	7.1154	0.5231
70.6943	7.9231	0.5520
70.7226	8.0000	0.5547
70.7508	6.8846	0.5146
70.7791	7.1154	0.5231
70.8073	7.2308	0.5274
70.8356	7.1923	0.5260
70.8639	7.7308	0.5453
70.8921	7.3462	0.5315
70.9204	7.3846	0.5329
70.9487	8.1509	0.5546
70.9769	7.8868	0.5455
71.0052	7.5849	0.5350
71.0335	7.8491	0.5442
71.0617	8.4906	0.5660
71.0900	8.0755	0.5520
71.1183	7.9623	0.5481
71.1465	8.5660	0.5685
71.1748	8.7170	0.5735
71.2031	8.6415	0.5710
71.2313	7.5472	0.5337
71.2596	8.6792	0.5723
71.2879	8.3019	0.5597
71.3161	8.9434	0.5809
71.3444	9.6226	0.6026
71.3727	11.2830	0.6525
71.4009	13.7736	0.7209
71.4292	9.6226	0.6026
71.4575	10.8302	0.6393
71.4857	9.6981	0.6050
71.5140	9.0189	0.5834
71.5423	10.9057	0.6415
71.5705	10.0755	0.6166
71.5988	11.0943	0.6470
71.6270	11.6604	0.6633
71.6553	10.7170	0.6359
71.6836	10.7925	0.6382
71.7118	12.2642	0.6803
71.7401	10.9811	0.6437
71.7684	12.3774	0.6834
71.7966	11.7736	0.6665
71.8249	11.8519	0.6625
71.8532	12.5926	0.6829
71.8814	12.8148	0.6889
71.9097	14.1481	0.7239
71.9380	15.0370	0.7463
71.9662	14.9630	0.7444
71.9945	14.6667	0.7370
72.0228	16.0000	0.7698
72.0510	17.1111	0.7961
72.0793	16.5556	0.7831
72.1076	15.9259	0.7680
72.1358	20.0000	0.8607
72.1641	20.0364	0.8536
72.1924	20.0364	0.8536
72.2206	20.9455	0.8727
72.2489	21.8545	0.8915
72.2772	21.2364	0.8788
72.3054	24.5455	0.9448
72.3337	23.6364	0.9271
72.3620	25.3091	0.9593
72.3902	24.5455	0.9448
72.4185	27.0545	0.9919
72.4468	27.2727	0.9959
72.4750	27.3818	0.9978
72.5033	28.9455	1.0259
72.5315	28.8000	1.0234
72.5598	30.3273	1.0501
72.5881	32.1455	1.0812
72.6163	32.7636	1.0915
72.6446	33.9273	1.1107
72.6729	36.5818	1.1534
72.7011	36.2909	1.1488
72.7294	41.0545	1.2218
72.7577	43.4545	1.2570
72.7859	44.5455	1.2727
72.8142	45.3091	1.2836
72.8425	45.8545	1.2913
72.8707	46.8000	1.3045
72.8990	45.6727	1.2887
72.9273	43.9636	1.2644
72.9555	43.6364	1.2597
72.9838	42.0727	1.2369
73.0121	40.8214	1.2074
73.0403	38.6429	1.1748
73.0686	40.4643	1.2021
73.0969	38.2500	1.1688
73.1251	37.5357	1.1578
73.1534	35.0357	1.1186
73.1817	33.8929	1.1002
73.2099	29.8929	1.0332
73.2382	28.1786	1.0032
73.2665	25.7143	0.9583
73.2947	22.9643	0.9056
73.3230	21.5357	0.8770
73.3512	19.7857	0.8406
73.3795	20.5263	0.8487
73.4078	17.6842	0.7877
73.4360	16.9825	0.7719
73.4643	16.5965	0.7631
73.4926	17.2281	0.7775
73.5208	14.0000	0.7009
73.5491	13.3684	0.6849
73.5774	13.9298	0.6991
73.6056	13.3684	0.6849
73.6339	12.1754	0.6536
73.6622	11.4035	0.6326
73.6904	10.9825	0.6208
73.7187	12.4561	0.6611
73.7470	10.7368	0.6138
73.7752	9.6140	0.5808
73.8035	9.0526	0.5636
73.8318	10.0000	0.5923
73.8600	7.8246	0.5240
73.8883	9.6140	0.5808
73.9166	9.6140	0.5808
73.9448	7.9649	0.5286
73.9731	8.6667	0.5514
74.0014	9.2632	0.5701
74.0296	8.6316	0.5503
74.0579	7.0175	0.4962
74.0862	8.4912	0.5458
74.1144	8.1754	0.5356
74.1427	9.0175	0.5625
74.1709	8.3448	0.5364
74.1992	6.8966	0.4877
74.2275	7.6897	0.5149
74.2557	6.7241	0.4815
74.2840	7.8966	0.5218
74.3123	7.2414	0.4997
74.3405	9.2759	0.5656
74.3688	8.1034	0.5286
74.3971	7.5172	0.5091
74.4253	7.4483	0.5068
74.4536	8.5517	0.5430
74.4819	7.4828	0.5080
74.5101	7.1724	0.4973
74.5384	7.8966	0.5218
74.5667	6.6897	0.4803
74.5949	6.5517	0.4753
74.6232	7.7627	0.5130
74.6515	6.5424	0.4709
74.6797	6.4746	0.4685
74.7080	7.1186	0.4912
74.7363	7.0847	0.4901
74.7645	6.2034	0.4586
74.7928	7.8305	0.5152
74.8211	7.3559	0.4994
74.8493	7.0169	0.4877
74.8776	6.9831	0.4865
74.9059	5.6271	0.4367
74.9341	7.7627	0.5130
74.9624	7.2203	0.4947
74.9907	6.8475	0.4818
75.0189	7.4237	0.5016
75.0472	7.6271	0.5085
75.0754	6.0339	0.4523
75.1037	6.0678	0.4535
75.1320	7.1864	0.4936
75.1602	7.1525	0.4924
75.1885	7.3898	0.5005
75.2168	6.5763	0.4721
75.2450	6.3390	0.4636
75.2733	7.2542	0.4959
75.3016	6.2034	0.4586
75.3298	6.9153	0.4842
75.3581	5.9667	0.4460
75.3864	6.2667	0.4570
75.4146	5.7000	0.4359
75.4429	6.8333	0.4773
75.4712	6.4000	0.4619
75.4994	6.9000	0.4796
75.5277	6.8333	0.4773
75.5560	7.2333	0.4910
75.5842	7.1667	0.4888
75.6125	6.6333	0.4702
75.6408	6.6333	0.4702
75.6690	5.9333	0.4447
75.6973	6.0333	0.4485
75.7256	6.1333	0.4522
75.7538	6.2667	0.4570
75.7821	7.0333	0.4842
75.8104	6.4667	0.4643
75.8386	5.7377	0.4337
75.8669	6.5902	0.4648
75.8951	7.0164	0.4796
75.9234	6.7869	0.4717
75.9517	6.2623	0.4531
75.9799	6.9508	0.4774
76.0082	6.3279	0.4555
76.0365	6.4590	0.4602
76.0647	6.2951	0.4543
76.0930	7.7377	0.5037
76.1213	7.2459	0.4874
76.1495	6.5246	0.4625
76.1778	6.4590	0.4602
76.2061	6.5902	0.4648
76.2343	7.1148	0.4830
76.2626	6.1311	0.4484
76.2909	6.7213	0.4694
76.3191	6.5246	0.4625
76.3474	6.4262	0.4590
76.3757	6.5246	0.4625
76.4039	7.1148	0.4830
76.4322	7.1475	0.4841
76.4605	7.1803	0.4852
76.4887	6.7869	0.4717
76.5170	6.9355	0.4730
76.5453	6.0323	0.4411
76.5735	7.2581	0.4839
76.6018	5.9032	0.4364
76.6301	6.6452	0.4630
76.6583	6.9677	0.4741
76.6866	5.7419	0.4304
76.7149	6.7742	0.4675
76.7431	5.5806	0.4243
76.7714	6.8065	0.4686
76.7996	6.0968	0.4435
76.8279	6.2903	0.4505
76.8562	6.2581	0.4493
76.8844	6.9677	0.4741
76.9127	6.8710	0.4708
76.9410	6.6452	0.4630
76.9692	6.5806	0.4607
76.9975	6.1935	0.4470
77.0258	5.8710	0.4352
77.0540	6.2258	0.4481
77.0823	5.9048	0.4330
77.1106	6.3492	0.4490
77.1388	6.1270	0.4410
77.1671	6.2540	0.4456
77.1954	7.0794	0.4741
77.2236	5.8095	0.4295
77.2519	7.0476	0.4730
77.2802	5.6190	0.4224
77.3084	6.4127	0.4512
77.3367	6.4444	0.4523
77.3650	7.3651	0.4835
77.3932	7.2381	0.4794
77.4215	6.0635	0.4387
77.4498	6.8889	0.4676
77.4780	6.9841	0.4709
77.5063	6.4762	0.4534
77.5346	6.9206	0.4687
77.5628	5.3333	0.4115
77.5911	6.7619	0.4633
77.6193	6.2222	0.4444
77.6476	6.0635	0.4387
77.6759	6.1587	0.4422
77.7041	5.8438	0.4273
77.7324	6.0313	0.4341
77.7607	6.5313	0.4518
77.7889	6.0938	0.4364
77.8172	6.6875	0.4571
77.8455	6.0625	0.4353
77.8737	6.3750	0.4463
77.9020	6.7188	0.4582
77.9303	6.0000	0.4330
77.9585	5.8438	0.4273
77.9868	5.5000	0.4146
78.0151	6.0000	0.4330
78.0433	5.9375	0.4308
78.0716	6.3438	0.4452
78.0999	6.0000	0.4330
78.1281	7.0938	0.4708
78.1564	7.6250	0.4881
78.1847	7.1250	0.4719
78.2129	6.0000	0.4330
78.2412	6.7188	0.4582
78.2695	6.3438	0.4452
78.2977	6.4923	0.4469
78.3260	6.5846	0.4501
78.3543	7.2923	0.4737
78.3825	5.4769	0.4105
78.4108	5.9385	0.4275
78.4390	6.0615	0.4319
78.4673	7.4462	0.4787
78.4956	6.1846	0.4362
78.5238	6.6769	0.4533
78.5521	6.5538	0.4491
78.5804	6.1846	0.4362
78.6086	6.9538	0.4626
78.6369	6.1846	0.4362
78.6652	7.0462	0.4656
78.6934	5.7846	0.4219
78.7217	6.4615	0.4459
78.7500	6.3077	0.4405
78.7782	6.1231	0.4341
78.8065	6.7692	0.4564
78.8348	6.3385	0.4416
78.8630	6.9394	0.4586
78.8913	6.3636	0.4391
78.9196	6.4848	0.4433
78.9478	6.9697	0.4596
78.9761	5.8485	0.4210
79.0044	7.0000	0.4606
79.0326	7.8788	0.4886
79.0609	6.9394	0.4586
79.0892	5.8788	0.4221
79.1174	6.4545	0.4423
79.1457	5.9697	0.4253
79.1740	5.9697	0.4253
79.2022	7.2424	0.4685
79.2305	7.0000	0.4606
79.2588	6.0909	0.4296
79.2870	7.4545	0.4753
79.3153	6.3636	0.4391
79.3435	6.4848	0.4433
79.3718	7.0606	0.4626
79.4001	7.3636	0.4724
79.4283	7.2121	0.4675
79.4566	8.0606	0.4942
79.4849	7.2121	0.4675
79.5131	6.6364	0.4484
79.5414	6.6567	0.4458
79.5697	7.7910	0.4823
79.5979	7.1343	0.4615
79.6262	6.8358	0.4517
79.6545	6.6269	0.4448
79.6827	5.9701	0.4222
79.7110	6.2090	0.4305
79.7393	7.4030	0.4701
79.7675	6.5075	0.4407
79.7958	6.4776	0.4397
79.8241	6.5373	0.4418
79.8523	6.8657	0.4527
79.8806	6.6866	0.4468
79.9089	6.2090	0.4305
79.9371	5.7910	0.4158
79.9654	6.8060	0.4507
79.9937	7.1343	0.4615
80.0219	5.9701	0.4222
80.0502	6.3824	0.4333
80.0785	6.7941	0.4470
80.1067	6.5882	0.4402
80.1350	6.7647	0.4461
80.1632	6.9412	0.4518
80.1915	6.7941	0.4470
80.2198	5.4706	0.4011
80.2480	7.1471	0.4585
80.2763	6.5000	0.4372
80.3046	7.0882	0.4566
80.3328	6.2059	0.4272
80.3611	6.2353	0.4282
80.3894	6.7647	0.4461
80.4176	7.2647	0.4622
80.4459	7.2647	0.4622
80.4742	6.6765	0.4431
80.5024	5.7647	0.4118
80.5307	5.6765	0.4086
80.5590	6.6176	0.4412
80.5872	6.3235	0.4313
80.6155	7.3235	0.4641
80.6438	6.2059	0.4272
80.6720	6.2353	0.4282
80.7003	7.0588	0.4556
80.7286	6.0000	0.4201
80.7568	6.6087	0.4377
80.7851	6.5797	0.4367
80.8134	6.4638	0.4328
80.8416	7.1304	0.4546
80.8699	6.6957	0.4405
80.8982	6.0580	0.4190
80.9264	6.7826	0.4434
80.9547	6.8696	0.4462
80.9830	7.1594	0.4555
81.0112	7.4203	0.4638
81.0395	6.7246	0.4415
81.0677	7.4783	0.4656
81.0960	6.8986	0.4472
81.1243	6.7826	0.4434
81.1525	6.6667	0.4396
81.1808	7.3333	0.4610
81.2091	6.4286	0.4286
81.2373	6.1429	0.4189
81.2656	6.6000	0.4342
81.2939	6.4857	0.4305
81.3221	6.4571	0.4295
81.3504	6.3143	0.4247
81.3787	6.5714	0.4333
81.4069	7.5143	0.4634
81.4352	7.0286	0.4481
81.4635	7.4857	0.4625
81.4917	7.0286	0.4481
81.5200	6.8857	0.4435
81.5483	6.9429	0.4454
81.5765	7.2571	0.4554
81.6048	7.2000	0.4536
81.6331	7.3714	0.4589
81.6613	6.9429	0.4454
81.6896	6.4000	0.4276
81.7179	6.6000	0.4342
81.7461	7.0000	0.4472
81.7744	7.2857	0.4562
81.8027	7.2286	0.4545
81.8309	7.0571	0.4490
81.8592	6.5714	0.4333
81.8874	6.4286	0.4286
81.9157	7.3143	0.4571
81.9440	6.8286	0.4417
81.9722	6.7429	0.4389
82.0005	7.2958	0.4533
82.0288	6.6479	0.4327
82.0570	6.9296	0.4418
82.0853	7.7746	0.4680
82.1136	6.4225	0.4253
82.1418	6.5634	0.4300
82.1701	6.9296	0.4418
82.1984	7.0141	0.4445
82.2266	6.7324	0.4355
82.2549	7.4648	0.4586
82.2832	7.1831	0.4498
82.3114	6.9296	0.4418
82.3397	7.2394	0.4516
82.3680	6.7606	0.4364
82.3962	7.2222	0.4479
82.4245	7.0833	0.4436
82.4528	6.3611	0.4204
82.4810	7.5000	0.4564
82.5093	6.4444	0.4231
82.5376	6.6944	0.4312
82.5658	6.8056	0.4348
82.5941	6.3889	0.4213
82.6224	6.6111	0.4285
82.6506	7.5556	0.4581
82.6789	7.3611	0.4522
82.7071	7.5556	0.4581
82.7354	7.3611	0.4522
82.7637	8.2500	0.4787
82.7919	7.5278	0.4573
82.8202	7.5833	0.4590
82.8485	6.5000	0.4249
82.8767	6.9722	0.4401
82.9050	7.2778	0.4496
82.9333	6.8889	0.4374
82.9615	7.0000	0.4410
82.9898	6.8056	0.4348
83.0181	7.1111	0.4444
83.0463	7.0556	0.4427
83.0746	7.7500	0.4640
83.1029	6.2222	0.4157
83.1311	8.1389	0.4755
83.1594	6.3889	0.4213
83.1877	7.7500	0.4640
83.2159	6.9041	0.4349
83.2442	7.0411	0.4392
83.2725	7.3973	0.4502
83.3007	7.7808	0.4617
83.3290	7.9726	0.4674
83.3573	7.4521	0.4518
83.3855	6.5205	0.4227
83.4138	8.0548	0.4698
83.4421	7.6986	0.4593
83.4703	6.8493	0.4332
83.4986	8.0274	0.4690
83.5269	7.4247	0.4510
83.5551	7.7027	0.4563
83.5834	7.4865	0.4498
83.6116	7.7568	0.4579
83.6399	7.7838	0.4587
83.6682	7.5405	0.4514
83.6964	7.9459	0.4634
83.7247	8.2432	0.4720
83.7530	7.8108	0.4595
83.7812	7.4865	0.4498
83.8095	7.1892	0.4408
83.8378	7.5405	0.4514
83.8660	7.7027	0.4563
83.8943	8.3243	0.4743
83.9226	7.9730	0.4642
83.9508	8.3514	0.4751
83.9791	7.2973	0.4441
84.0074	7.8649	0.4610
84.0356	6.7027	0.4256
84.0639	7.7838	0.4587
84.0922	7.9189	0.4626
84.1204	7.9459	0.4634
84.1487	7.7838	0.4587
84.1770	7.9730	0.4642
84.2052	7.2703	0.4433
84.2335	7.7027	0.4563
84.2618	8.5946	0.4820
84.2900	7.7838	0.4587
84.3183	7.2973	0.4441
84.3466	7.7568	0.4579
84.3748	6.8919	0.4316
84.4031	7.0811	0.4375
84.4313	8.2432	0.4720
84.4596	8.0267	0.4626
84.4879	8.0267	0.4626
84.5161	7.7333	0.4541
84.5444	7.4667	0.4462
84.5727	7.7600	0.4549
84.6009	8.1067	0.4649
84.6292	7.5733	0.4494
84.6575	8.0800	0.4642
84.6857	8.2933	0.4703
84.7140	7.8421	0.4543
84.7423	7.2105	0.4356
84.7705	8.6842	0.4781
84.7988	8.5263	0.4737
84.8271	7.4211	0.4419
84.8553	7.8947	0.4558
84.8836	8.2632	0.4663
84.9119	8.2105	0.4648
84.9401	8.3421	0.4685
84.9684	8.3421	0.4685
84.9967	8.7895	0.4809
85.0249	8.2368	0.4656
85.0532	9.3158	0.4951
85.0815	8.3158	0.4678
85.1097	8.6053	0.4759
85.1380	8.5000	0.4730
85.1663	9.1842	0.4916
85.1945	7.8684	0.4550
85.2228	8.4211	0.4708
85.2511	8.4211	0.4708
85.2793	8.7105	0.4788
85.3076	7.7368	0.4512
85.3358	9.3684	0.4965
85.3641	9.1579	0.4909
85.3924	9.6316	0.5035
85.4206	9.2368	0.4930
85.4489	8.8421	0.4824
85.4772	9.6579	0.5041
85.5054	9.9737	0.5123
85.5337	9.7368	0.5062
85.5620	9.9737	0.5123
85.5902	9.5263	0.5007
85.6185	9.7632	0.5069
85.6468	10.5789	0.5276
85.6750	11.0130	0.5348
85.7033	11.0649	0.5361
85.7316	10.2857	0.5169
85.7598	11.3506	0.5430
85.7881	11.0130	0.5348
85.8164	12.3117	0.5655
85.8446	12.7013	0.5744
85.8729	11.8442	0.5547
85.9012	12.2051	0.5594
85.9294	13.2564	0.5830
85.9577	14.1026	0.6013
85.9860	13.0256	0.5779
86.0142	12.8974	0.5751
86.0425	13.2564	0.5830
86.0708	13.8205	0.5953
86.0990	13.3077	0.5841
86.1273	15.0513	0.6212
86.1555	13.7436	0.5936
86.1838	13.6154	0.5909
86.2121	14.0769	0.6008
86.2403	14.7692	0.6154
86.2686	16.3590	0.6477
86.2969	16.0513	0.6415
86.3251	16.0000	0.6405
86.3534	17.6667	0.6730
86.3817	18.8974	0.6961
86.4099	19.3077	0.7036
86.4382	19.4872	0.7069
86.4665	20.1795	0.7193
86.4947	22.1538	0.7537
86.5230	21.1538	0.7365
86.5513	22.7949	0.7645
86.5795	23.5128	0.7765
86.6078	22.9487	0.7671
86.6361	22.5385	0.7602
86.6643	21.4359	0.7414
86.6926	22.1026	0.7528
86.7209	22.3077	0.7563
86.7491	21.4359	0.7414
86.7774	21.0000	0.7338
86.8057	20.9487	0.7329
86.8339	22.4103	0.7580
86.8622	19.7436	0.7115
86.8905	19.4684	0.7020
86.9187	20.6582	0.7232
86.9470	18.1266	0.6774
86.9752	17.6203	0.6679
87.0035	16.3797	0.6440
87.0318	15.3165	0.6227
87.0600	14.3250	0.5984
87.0883	14.5000	0.6021
87.1166	13.6250	0.5836
87.1448	13.6250	0.5836
87.1731	13.4250	0.5793
87.2014	12.9500	0.5690
87.2296	12.7250	0.5640
87.2579	13.0250	0.5706
87.2862	12.2250	0.5528
87.3144	11.3750	0.5333
87.3427	11.0000	0.5244
87.3710	10.9750	0.5238
87.3992	10.9000	0.5220
87.4275	10.8250	0.5202
87.4558	10.1250	0.5031
87.4840	10.9000	0.5220
87.5123	10.6000	0.5148
87.5406	10.5250	0.5130
87.5688	9.8500	0.4962
87.5971	10.3000	0.5074
87.6254	9.9500	0.4987
87.6536	9.8250	0.4956
87.6819	9.8750	0.4969
87.7102	9.3750	0.4841
87.7384	10.2000	0.5050
87.7667	10.1250	0.5031
87.7950	10.0250	0.5006
87.8232	9.4000	0.4848
87.8515	9.7500	0.4937
87.8797	10.4500	0.5111
87.9080	9.6250	0.4905
87.9363	8.8750	0.4710
87.9645	9.3000	0.4822
87.9928	10.5250	0.5130
88.0211	9.9750	0.4994
88.0493	9.5000	0.4873
88.0776	10.7750	0.5190
88.1059	9.4750	0.4867
88.1341	8.9630	0.4704
88.1624	10.0494	0.4981
88.1907	9.6049	0.4870
88.2189	9.8272	0.4926
88.2472	8.8537	0.4647
88.2755	9.5854	0.4835
88.3037	9.1220	0.4717
88.3320	9.6098	0.4841
88.3603	9.2683	0.4755
88.3885	9.4878	0.4811
88.4168	9.7073	0.4866
88.4451	8.7561	0.4621
88.4733	8.9024	0.4660
88.5016	9.6341	0.4847
88.5299	11.0000	0.5180
88.5581	9.4390	0.4798
88.5864	9.5122	0.4817
88.6147	9.2683	0.4755
88.6429	10.1707	0.4981
88.6712	10.1463	0.4975
88.6994	8.9756	0.4679
88.7277	9.0976	0.4711
88.7560	9.5854	0.4835
88.7842	9.1220	0.4717
88.8125	9.8537	0.4902
88.8408	9.4390	0.4798
88.8690	10.3659	0.5028
88.8973	9.5610	0.4829
88.9256	9.7317	0.4872
88.9538	9.6585	0.4854
88.9821	9.8293	0.4896
89.0104	9.6098	0.4841
89.0386	9.4878	0.4811
89.0669	9.5366	0.4823
89.0952	8.9268	0.4666
89.1234	9.7317	0.4872
89.1517	9.9024	0.4914
89.1800	9.7805	0.4884
89.2082	9.9024	0.4914
89.2365	10.0244	0.4945
89.2648	9.3659	0.4779
89.2930	9.0732	0.4704
89.3213	10.0000	0.4939
89.3496	9.3494	0.4746
89.3778	9.5663	0.4801
89.4061	9.3333	0.4714
89.4344	9.8333	0.4839
89.4626	9.9286	0.4862
89.4909	10.2143	0.4932
89.5192	10.0714	0.4897
89.5474	9.1905	0.4678
89.5757	8.4048	0.4473
89.6039	9.9762	0.4874
89.6322	9.5476	0.4768
89.6605	11.1905	0.5162
89.6887	10.0476	0.4891
89.7170	10.6667	0.5040
89.7453	9.8571	0.4845
89.7735	10.4048	0.4977
89.8018	9.6905	0.4803
89.8301	9.4048	0.4732
89.8583	9.6905	0.4803
89.8866	9.7381	0.4815
89.9149	9.4762	0.4750
89.9431	10.6429	0.5034
89.9714	9.3095	0.4708
89.9997	10.1429	0.4914
90.0279	9.0714	0.4647
90.0562	10.2381	0.4937
90.0845	10.1905	0.4926
90.1127	10.2857	0.4949
90.1410	10.3571	0.4966
90.1693	9.5952	0.4780
90.1975	9.7381	0.4815
90.2258	10.4286	0.4983
90.2541	10.6190	0.5028
90.2823	10.1905	0.4926
90.3106	10.2381	0.4937
90.3389	9.3095	0.4708
90.3671	9.8095	0.4833
90.3954	10.5000	0.5000
90.4236	10.5476	0.5011
90.4519	11.1667	0.5156
90.4802	10.7143	0.5051
90.5084	9.5000	0.4756
90.5367	9.2857	0.4702
90.5650	10.5000	0.5000
90.5932	10.6512	0.4977
90.6215	9.6512	0.4738
90.6498	10.1163	0.4850
90.6780	10.0000	0.4822
90.7063	11.0000	0.5058
90.7346	10.0465	0.4834
90.7628	11.3488	0.5137
90.7911	11.2326	0.5111
90.8194	10.9535	0.5047
90.8476	11.0233	0.5063
90.8759	10.1860	0.4867
90.9042	10.9302	0.5042
90.9324	10.7209	0.4993
90.9607	11.2326	0.5111
90.9890	11.9535	0.5272
91.0172	11.6744	0.5211
91.0455	10.5116	0.4944
91.0738	10.8140	0.5015
91.1020	11.0930	0.5079
91.1303	11.5581	0.5185
91.1586	12.0698	0.5298
91.1868	11.5349	0.5179
91.2151	11.7674	0.5231
91.2433	10.6744	0.4982
91.2716	11.3256	0.5132
91.2999	11.5814	0.5190
91.3281	12.7674	0.5449
91.3564	11.3488	0.5137
91.3847	11.2558	0.5116
91.4129	11.7209	0.5221
91.4412	11.1860	0.5100
91.4695	11.2326	0.5111
91.4977	10.9302	0.5042
91.5260	11.8605	0.5252
91.5543	11.9767	0.5278
91.5825	12.0698	0.5298
91.6108	10.9535	0.5047
91.6391	11.8605	0.5252
91.6673	12.9767	0.5493
91.6956	11.5349	0.5179
91.7239	11.7674	0.5231
91.7521	12.1379	0.5282
91.7804	12.1609	0.5287
91.8087	12.3864	0.5306
91.8369	11.9318	0.5207
91.8652	11.2727	0.5062
91.8935	12.1818	0.5262
91.9217	11.2955	0.5067
91.9500	12.1818	0.5262
91.9783	11.5000	0.5112
92.0065	12.2727	0.5281
92.0348	11.7955	0.5178
92.0631	12.0227	0.5227
92.0913	11.6364	0.5143
92.1196	12.3864	0.5306
92.1478	12.2045	0.5267
92.1761	12.3636	0.5301
92.2044	11.2727	0.5062
92.2326	11.7727	0.5173
92.2609	11.2955	0.5067
92.2892	12.4545	0.5320
92.3174	12.2045	0.5267
92.3457	11.1136	0.5026
92.3740	11.9091	0.5203
92.4022	11.5000	0.5112
92.4305	12.6591	0.5364
92.4588	12.2500	0.5276
92.4870	12.3636	0.5301
92.5153	12.4318	0.5315
92.5436	11.5909	0.5133
92.5718	12.3864	0.5306
92.6001	12.1591	0.5257
92.6284	11.7045	0.5158
92.6566	12.5000	0.5330
92.6849	12.0000	0.5222
92.7132	11.5909	0.5133
92.7414	12.0455	0.5232
92.7697	11.9773	0.5217
92.7980	12.2955	0.5286
92.8262	12.3636	0.5301
92.8545	12.7500	0.5383
92.8828	12.2500	0.5276
92.9110	12.0455	0.5232
92.9393	11.4382	0.5070
92.9675	12.9663	0.5398
92.9958	10.8764	0.4944
93.0241	11.5955	0.5105
93.0523	12.4444	0.5259
93.0806	11.8889	0.5140
93.1089	12.2667	0.5221
93.1371	12.5333	0.5277
93.1654	12.1778	0.5202
93.1937	11.7333	0.5106
93.2219	11.6667	0.5092
93.2502	11.8444	0.5130
93.2785	12.0000	0.5164
93.3067	12.0000	0.5164
93.3350	11.5778	0.5072
93.3633	12.0000	0.5164
93.3915	12.7111	0.5315
93.4198	12.2667	0.5221
93.4481	11.9778	0.5159
93.4763	12.0667	0.5178
93.5046	12.3111	0.5230
93.5329	11.7556	0.5111
93.5611	11.5333	0.5063
93.5894	11.8667	0.5135
93.6177	10.9778	0.4939
93.6459	10.9111	0.4924
93.6742	11.8667	0.5135
93.7025	13.0667	0.5389
93.7307	12.4667	0.5263
93.7590	12.9333	0.5361
93.7872	12.1333	0.5193
93.8155	13.0222	0.5379
93.8438	12.4889	0.5268
93.8720	12.4000	0.5249
93.9003	12.6889	0.5310
93.9286	13.3333	0.5443
93.9568	12.2444	0.5216
93.9851	12.7778	0.5329
94.0134	12.0222	0.5169
94.0416	13.0222	0.5379
94.0699	12.5778	0.5287
94.0982	12.6374	0.5270
94.1264	11.8901	0.5112
94.1547	13.0769	0.5361
94.1830	12.2857	0.5196
94.2112	13.2967	0.5406
94.2395	13.2308	0.5392
94.2678	11.9565	0.5098
94.2960	11.6522	0.5033
94.3243	12.6957	0.5253
94.3526	12.5652	0.5226
94.3808	13.2826	0.5374
94.4091	12.1087	0.5131
94.4374	13.3478	0.5387
94.4656	12.6087	0.5235
94.4939	12.6304	0.5240
94.5222	12.4348	0.5199
94.5504	12.7174	0.5258
94.5787	13.3913	0.5396
94.6070	13.0870	0.5334
94.6352	13.4348	0.5404
94.6635	12.5870	0.5231
94.6917	12.7609	0.5267
94.7200	12.5870	0.5231
94.7483	13.5435	0.5426
94.7765	13.1304	0.5343
94.8048	13.1304	0.5343
94.8331	11.7391	0.5052
94.8613	13.4348	0.5404
94.8896	12.1957	0.5149
94.9179	12.6739	0.5249
94.9461	13.7391	0.5465
94.9744	12.1522	0.5140
95.0027	12.4130	0.5195
95.0309	12.6304	0.5240
95.0592	12.5652	0.5226
95.0875	12.1304	0.5135
95.1157	13.2391	0.5365
95.1440	13.8261	0.5482
95.1723	13.1522	0.5347
95.2005	13.7826	0.5474
95.2288	12.3043	0.5172
95.2571	12.9348	0.5303
95.2853	12.2366	0.5130
95.3136	13.2258	0.5333
95.3419	13.3763	0.5363
95.3701	12.8817	0.5263
95.3984	12.7312	0.5232
95.4267	12.0215	0.5085
95.4549	13.0108	0.5290
95.4832	12.9677	0.5281
95.5114	12.9362	0.5246
95.5397	13.8298	0.5424
95.5680	12.5319	0.5164
95.5962	12.7660	0.5212
95.6245	13.8936	0.5437
95.6528	13.4468	0.5349
95.6810	13.6809	0.5395
95.7093	12.3404	0.5124
95.7376	12.7234	0.5203
95.7658	13.8085	0.5420
95.7941	13.9787	0.5454
95.8224	12.9574	0.5251
95.8506	12.5532	0.5168
95.8789	13.1489	0.5289
95.9072	12.6809	0.5194
95.9354	12.8511	0.5229
95.9637	13.0213	0.5264
95.9920	14.6809	0.5589
96.0202	13.4681	0.5353
96.0485	13.1064	0.5281
96.0768	13.4043	0.5340
96.1050	13.2766	0.5315
96.1333	12.1915	0.5093
96.1616	13.3404	0.5328
96.1898	14.3617	0.5528
96.2181	13.6809	0.5395
96.2464	13.5106	0.5362
96.2746	13.2766	0.5315
96.3029	14.0426	0.5466
96.3312	13.5532	0.5370
96.3594	13.6383	0.5387
96.3877	13.6809	0.5395
96.4159	13.7872	0.5416
96.4442	14.3158	0.5490
96.4725	14.0632	0.5441
96.5007	14.6316	0.5550
96.5290	13.8526	0.5400
96.5573	14.0000	0.5429
96.5855	13.5789	0.5347
96.6138	13.9158	0.5413
96.6421	13.2211	0.5276
96.6703	13.3684	0.5305
96.6986	13.2000	0.5272
96.7269	13.4792	0.5299
96.7551	14.2500	0.5449
96.7834	14.3542	0.5469
96.8117	13.6250	0.5328
96.8399	13.6458	0.5332
96.8682	13.7292	0.5348
96.8965	13.6458	0.5332
96.9247	14.2917	0.5457
96.9530	15.0625	0.5602
96.9813	13.7083	0.5344
97.0095	13.1875	0.5242
97.0378	13.4792	0.5299
97.0661	13.2708	0.5258
97.0943	15.2500	0.5637
97.1226	13.4792	0.5299
97.1509	14.5000	0.5496
97.1791	14.7708	0.5547
97.2074	14.6458	0.5524
97.2356	14.2708	0.5453
97.2639	14.6667	0.5528
97.2922	13.9583	0.5393
97.3204	12.8542	0.5175
97.3487	13.9167	0.5385
97.3770	14.8542	0.5563
97.4052	14.1667	0.5433
97.4335	14.6042	0.5516
97.4618	14.0625	0.5413
97.4900	13.8542	0.5372
97.5183	15.0625	0.5602
97.5466	13.8750	0.5376
97.5748	15.0833	0.5606
97.6031	14.3505	0.5440
97.6314	14.0825	0.5389
97.6596	14.0619	0.5385
97.6879	13.5464	0.5285
97.7162	14.1031	0.5392
97.7444	14.9072	0.5544
97.7727	14.2474	0.5420
97.8010	13.5464	0.5285
97.8292	13.4433	0.5265
97.8575	14.5773	0.5482
97.8858	14.3918	0.5447
97.9140	14.2268	0.5416
97.9423	14.4742	0.5463
97.9706	14.2653	0.5396
97.9988	15.6327	0.5648
98.0271	13.9388	0.5334
98.0553	14.5510	0.5449
98.0836	13.7959	0.5306
98.1119	14.4490	0.5430
98.1401	14.2653	0.5396
98.1684	14.5714	0.5453
98.1967	15.2041	0.5570
98.2249	14.2857	0.5399
98.2532	15.7143	0.5663
98.2815	14.6939	0.5476
98.3097	15.6327	0.5648
98.3380	15.5102	0.5626
98.3663	15.6327	0.5648
98.3945	15.5306	0.5630
98.4228	14.9184	0.5518
98.4511	15.9184	0.5700
98.4793	14.8776	0.5510
98.5076	15.3061	0.5589
98.5359	14.2653	0.5396
98.5641	16.0816	0.5729
98.5924	15.9592	0.5707
98.6207	15.6122	0.5645
98.6489	15.6735	0.5656
98.6772	16.5510	0.5812
98.7055	17.0000	0.5890
98.7337	15.8980	0.5696
98.7620	15.9592	0.5707
98.7903	16.7959	0.5855
98.8185	17.0000	0.5890
98.8468	17.1224	0.5911
98.8751	17.4286	0.5964
98.9033	16.9592	0.5883
98.9316	16.6531	0.5830
98.9598	16.4286	0.5790
98.9881	16.8980	0.5872
99.0164	17.6566	0.5972
99.0446	18.5455	0.6121
99.0729	17.1515	0.5886
99.1012	18.3030	0.6081
99.1294	17.9596	0.6023
99.1577	17.6768	0.5976
99.1860	18.9000	0.6148
99.2142	19.1600	0.6190
99.2425	18.5800	0.6096
99.2708	20.0800	0.6337
99.2990	19.0000	0.6164
99.3273	19.4400	0.6235
99.3556	19.7400	0.6283
99.3838	19.3800	0.6226
99.4121	19.7400	0.6283
99.4404	20.7200	0.6437
99.4686	21.1000	0.6496
99.4969	21.2200	0.6515
99.5252	20.1400	0.6347
99.5534	20.9400	0.6471
99.5817	21.6800	0.6585
99.6100	22.4000	0.6693
99.6382	21.9600	0.6627
99.6665	22.2200	0.6666
99.6948	23.2800	0.6823
99.7230	22.5400	0.6714
99.7513	24.1600	0.6951
99.7795	24.3600	0.6980
99.8078	25.6800	0.7167
99.8361	27.1200	0.7365
99.8643	29.1600	0.7637
99.8926	28.7000	0.7576
99.9209	28.8800	0.7600
99.9491	29.2600	0.7650
99.9774	32.3400	0.8042
100.0057	32.0800	0.8010
100.0339	33.7000	0.8210
100.0622	33.1400	0.8141
100.0905	32.0400	0.8005
100.1187	32.6200	0.8077
100.1470	30.4000	0.7797
100.1753	31.4400	0.7930
100.2035	31.0200	0.7877
100.2318	31.0600	0.7882
100.2601	32.2400	0.8030
100.2883	29.2800	0.7652
100.3166	29.4400	0.7673
100.3449	30.1400	0.7764
100.3731	29.6200	0.7697
100.4014	30.1980	0.7733
100.4297	28.4118	0.7464
100.4579	27.0196	0.7279
100.4862	25.8627	0.7121
100.5145	27.1373	0.7295
100.5427	24.2941	0.6902
100.5710	23.3137	0.6761
100.5993	24.0196	0.6863
100.6275	24.1373	0.6880
100.6558	22.1569	0.6591
100.6840	22.6667	0.6667
100.7123	21.9608	0.6562
100.7406	22.0980	0.6583
100.7688	20.9608	0.6411
100.7971	20.8824	0.6399
100.8254	21.0000	0.6417
100.8536	19.3922	0.6166
100.8819	21.0980	0.6432
100.9102	19.5882	0.6197
100.9384	18.8235	0.6075
100.9667	19.7843	0.6228
100.9950	20.2353	0.6299
101.0232	19.7451	0.6222
101.0515	18.0980	0.5957
101.0798	17.9216	0.5928
101.1080	18.0980	0.5957
101.1363	19.3725	0.6163
101.1646	17.4706	0.5853
101.1928	17.5098	0.5859
101.2211	16.7059	0.5723
101.2494	16.6667	0.5717
101.2776	16.6667	0.5717
101.3059	16.8824	0.5753
101.3342	17.4902	0.5856
101.3624	16.8039	0.5740
101.3907	15.4510	0.5504
101.4190	15.8627	0.5577
101.4472	15.9216	0.5587
101.4755	16.9608	0.5767
101.5037	16.6863	0.5720
101.5320	15.9412	0.5591
101.5603	16.8039	0.5740
101.5885	15.0392	0.5430
101.6168	14.7059	0.5370
101.6451	15.2941	0.5476
101.6733	16.1961	0.5635
101.7016	14.5686	0.5345
101.7299	15.1176	0.5444
101.7581	15.2157	0.5462
101.7864	15.2157	0.5462
101.8147	15.6471	0.5539
101.8429	15.6893	0.5519
101.8712	15.5962	0.5477
101.8995	15.1538	0.5398
101.9277	15.3077	0.5426
101.9560	16.0192	0.5550
101.9843	16.0000	0.5547
102.0125	14.9808	0.5367
102.0408	15.4615	0.5453
102.0691	14.8077	0.5336
102.0973	14.8077	0.5336
102.1256	14.9615	0.5364
102.1539	13.8269	0.5157
102.1821	14.5962	0.5298
102.2104	15.4615	0.5453
102.2387	14.9615	0.5364
102.2669	14.9615	0.5364
102.2952	15.5577	0.5470
102.3234	15.3077	0.5426
102.3517	15.8269	0.5517
102.3800	15.1154	0.5391
102.4082	16.0192	0.5550
102.4365	14.5577	0.5291
102.4648	15.1154	0.5391
102.4930	14.8654	0.5347
102.5213	14.6731	0.5312
102.5496	15.4231	0.5446
102.5778	14.9808	0.5367
102.6061	15.4231	0.5446
102.6344	14.8077	0.5336
102.6626	14.5000	0.5281
102.6909	14.2885	0.5242
102.7192	15.1731	0.5402
102.7474	15.1538	0.5398
102.7757	14.2308	0.5231
102.8040	14.8269	0.5340
102.8322	14.8462	0.5343
102.8605	14.3269	0.5249
102.8888	14.9808	0.5367
102.9170	15.5192	0.5463
102.9453	14.2500	0.5235
102.9736	14.0962	0.5207
103.0018	14.6731	0.5312
103.0301	15.3654	0.5436
103.0584	13.9808	0.5185
103.0866	15.0385	0.5378
103.1149	15.0577	0.5381
103.1432	14.1731	0.5221
103.1714	15.1346	0.5395
103.1997	14.9808	0.5367
103.2279	14.7115	0.5319
103.2562	15.6952	0.5468
103.2845	14.0381	0.5171
103.3127	14.9143	0.5330
103.3410	15.1132	0.5340
103.3693	14.5283	0.5236
103.3975	14.1132	0.5160
103.4258	15.9057	0.5478
103.4541	14.0000	0.5140
103.4823	14.9623	0.5313
103.5106	14.5849	0.5246
103.5389	15.6226	0.5429
103.5671	14.9245	0.5307
103.5954	14.3019	0.5195
103.6237	15.0377	0.5327
103.6519	15.1698	0.5350
103.6802	14.8113	0.5286
103.7085	14.7358	0.5273
103.7367	15.1509	0.5347
103.7650	14.6792	0.5263
103.7933	15.1132	0.5340
103.8215	13.9623	0.5133
103.8498	15.1698	0.5350
103.8781	14.0377	0.5146
103.9063	14.7170	0.5270
103.9346	14.7358	0.5273
103.9629	16.1132	0.5514
103.9911	14.7736	0.5280
104.0194	14.4906	0.5229
104.0476	13.8113	0.5105
104.0759	14.5094	0.5232
104.1042	14.4528	0.5222
104.1324	15.1321	0.5343
104.1607	14.9623	0.5313
104.1890	14.9623	0.5313
104.2172	14.8679	0.5296
104.2455	14.8491	0.5293
104.2738	14.9057	0.5303
104.3020	14.6792	0.5263
104.3303	15.1132	0.5340
104.3586	14.1698	0.5171
104.3868	14.3396	0.5202
104.4151	13.7170	0.5087
104.4434	15.0377	0.5327
104.4716	14.1887	0.5174
104.4999	15.5849	0.5423
104.5282	14.5094	0.5232
104.5564	15.3208	0.5377
104.5847	13.7358	0.5091
104.6130	14.5094	0.5232
104.6412	14.3585	0.5205
104.6695	14.5421	0.5214
104.6978	14.0748	0.5129
104.7260	15.2710	0.5343
104.7543	15.0841	0.5310
104.7826	14.8224	0.5264
104.8108	15.5370	0.5364
104.8391	14.5926	0.5198
104.8674	13.8333	0.5061
104.8956	14.7037	0.5218
104.9239	14.2593	0.5139
104.9521	13.2407	0.4952
104.9804	14.6667	0.5212
105.0087	13.5000	0.5000
105.0369	13.4815	0.4997
105.0652	14.6852	0.5215
105.0935	15.1481	0.5296
105.1217	14.9259	0.5257
105.1500	15.0741	0.5283
105.1783	14.4630	0.5175
105.2065	14.1667	0.5122
105.2348	13.8889	0.5072
105.2631	14.2778	0.5142
105.2913	14.6667	0.5212
105.3196	15.1667	0.5300
105.3479	14.2037	0.5129
105.3761	13.5926	0.5017
105.4044	12.9815	0.4903
105.4327	14.7963	0.5235
105.4609	14.0926	0.5109
105.4892	14.6852	0.5215
105.5175	14.7222	0.5221
105.5457	14.8889	0.5251
105.5740	15.8519	0.5418
105.6023	14.9815	0.5267
105.6305	15.0556	0.5280
105.6588	14.5741	0.5195
105.6871	13.7593	0.5048
105.7153	14.7037	0.5218
105.7436	14.8704	0.5248
105.7718	14.6111	0.5202
105.8001	13.9815	0.5088
105.8284	14.6667	0.5212
105.8566	14.4815	0.5179
105.8849	14.9630	0.5264
105.9132	13.8704	0.5068
105.9414	14.6296	0.5205
105.9697	14.3704	0.5159
105.9980	14.4074	0.5165
106.0262	15.2407	0.5313
106.0545	14.3519	0.5155
106.0828	14.8440	0.5219
106.1110	13.9083	0.5052
106.1393	14.0734	0.5082
106.1676	14.3853	0.5138
106.1958	14.6606	0.5187
106.2241	14.2385	0.5111
106.2524	14.2202	0.5108
106.2806	14.7455	0.5178
106.3089	14.6182	0.5155
106.3372	14.6909	0.5168
106.3654	14.8909	0.5203
106.3937	15.1091	0.5241
106.4220	14.0909	0.5062
106.4502	13.9636	0.5039
106.4785	14.0182	0.5049
106.5068	14.7091	0.5171
106.5350	13.8727	0.5022
106.5633	14.4000	0.5117
106.5915	14.1636	0.5075
106.6198	14.6545	0.5162
106.6481	14.2182	0.5084
106.6763	14.4000	0.5117
106.7046	14.1455	0.5071
106.7329	14.2182	0.5084
106.7611	13.7455	0.4999
106.7894	14.6909	0.5168
106.8177	14.6000	0.5152
106.8459	13.7091	0.4993
106.8742	14.4909	0.5133
106.9025	14.9455	0.5213
106.9307	14.8000	0.5187
106.9590	15.0364	0.5229
106.9873	14.9091	0.5206
107.0155	14.0182	0.5049
107.0438	13.8545	0.5019
107.0721	14.6727	0.5165
107.1003	15.2182	0.5260
107.1286	15.1091	0.5241
107.1569	13.7818	0.5006
107.1851	14.9091	0.5206
107.2134	14.3818	0.5114
107.2417	14.3273	0.5104
107.2699	14.8182	0.5191
107.2982	14.2727	0.5094
107.3265	13.8909	0.5026
107.3547	14.8000	0.5187
107.3830	14.1636	0.5075
107.4113	13.7818	0.5006
107.4395	14.3818	0.5114
107.4678	14.6909	0.5168
107.4960	13.9279	0.5010
107.5243	14.2523	0.5068
107.5526	13.8919	0.5003
107.5808	13.8559	0.4997
107.6091	14.9369	0.5188
107.6374	15.0811	0.5213
107.6656	15.2252	0.5238
107.6939	15.1351	0.5222
107.7222	15.0090	0.5200
107.7504	14.4286	0.5076
107.7787	14.1607	0.5029
107.8070	13.2143	0.4858
107.8352	14.4286	0.5076
107.8635	14.6786	0.5120
107.8918	14.6607	0.5117
107.9200	14.6071	0.5107
107.9483	14.6250	0.5110
107.9766	14.5893	0.5104
108.0048	14.3214	0.5057
108.0331	13.9643	0.4994
108.0614	14.1250	0.5022
108.0896	15.1071	0.5194
108.1179	14.5536	0.5098
108.1462	14.3036	0.5054
108.1744	13.8929	0.4981
108.2027	14.0000	0.5000
108.2310	14.8214	0.5145
108.2592	14.0357	0.5006
108.2875	15.0536	0.5185
108.3157	14.4464	0.5079
108.3440	15.0536	0.5185
108.3723	15.3750	0.5240
108.4005	13.8214	0.4968
108.4288	13.4464	0.4900
108.4571	14.1607	0.5029
108.4853	14.0357	0.5006
108.5136	14.3214	0.5057
108.5419	14.3036	0.5054
108.5701	14.2321	0.5041
108.5984	14.8214	0.5145
108.6267	14.5357	0.5095
108.6549	13.6964	0.4945
108.6832	15.0179	0.5179
108.7115	14.5405	0.5119
108.7397	15.0000	0.5222
108.7680	14.0550	0.5078
108.7963	14.3148	0.5149
108.8245	14.5794	0.5220
108.8528	13.4528	0.5038
108.8811	14.5333	0.5261
108.9093	14.3462	0.5253
108.9376	14.4078	0.5289
108.9659	14.9020	0.5406
108.9941	14.5347	0.5365
109.0224	15.1000	0.5495
109.0507	12.8485	0.5095
109.0789	13.3878	0.5227
109.1072	14.4330	0.5455
109.1355	14.1250	0.5425
109.1637	13.4105	0.5313
109.1920	14.8298	0.5617
109.2202	14.9149	0.5633
109.2485	13.8925	0.5466
109.2768	15.3696	0.5780
109.3050	14.4396	0.5633
109.3333	13.8222	0.5542
109.3616	14.5393	0.5716
109.3898	13.9545	0.5632
109.4181	13.9540	0.5664
109.4464	14.6279	0.5833
109.4746	14.3059	0.5802
109.5029	14.2857	0.5832
109.5312	14.5542	0.5922
109.5594	14.9268	0.6034
109.5877	13.3333	0.5738
109.6160	13.8750	0.5890
109.6442	14.5823	0.6076
109.6725	13.9744	0.5986
109.7008	13.9740	0.6025
109.7290	13.4211	0.5943
109.7573	14.8000	0.6282
109.7856	15.1892	0.6407
109.8138	15.0137	0.6414
109.8421	14.8611	0.6425
109.8704	14.1127	0.6305
109.8986	14.1714	0.6363
109.9269	14.4058	0.6462
109.9552	13.9706	0.6410
109.9834	14.9254	0.6675
