1.540593
20.0141	36.0000	4.2426
20.0424	28.0000	3.7417
20.0707	37.0000	4.3012
20.0989	38.5000	4.3875
20.1272	41.5000	4.5552
20.1555	36.5000	4.2720
20.1837	38.0000	4.3589
20.2120	43.0000	4.6368
20.2403	37.0000	4.3012
20.2685	32.0000	4.0000
20.2968	36.0000	4.2426
20.3251	34.0000	4.1231
20.3533	29.5000	3.8406
20.3816	38.5000	4.3875
20.4099	37.5000	4.3301
20.4381	39.0000	4.4159
20.4664	37.0000	4.3012
20.4946	34.0000	4.1231
20.5229	35.5000	4.2131
20.5512	41.5000	4.5552
20.5794	35.0000	4.1833
20.6077	39.5000	4.4441
20.6360	45.5000	4.7697
20.6642	36.0000	4.2426
20.6925	38.0000	4.3589
20.7208	36.0000	4.2426
20.7490	35.0000	4.1833
20.7773	37.0000	4.3012
20.8056	28.5000	3.7749
20.8338	30.5000	3.9051
20.8621	38.0000	4.3589
20.8904	31.5000	3.9686
20.9186	39.0000	4.4159
20.9469	34.0000	4.1231
20.9752	41.0000	4.5277
21.0034	34.0000	4.1231
21.0317	36.0000	4.2426
21.0600	37.0000	4.3012
21.0882	37.5000	4.3301
21.1165	35.5000	4.2131
21.1448	39.0000	4.4159
21.1730	35.0000	4.1833
21.2013	34.0000	4.1231
21.2296	32.0000	4.0000
21.2578	26.0000	3.6056
21.2861	28.5000	3.7749
21.3143	34.5000	4.1533
21.3426	32.0000	4.0000
21.3709	33.0000	4.0620
21.3991	31.5000	3.9686
21.4274	33.5000	4.0927
21.4557	30.0000	3.8730
21.4839	32.5000	4.0311
21.5122	37.0000	4.3012
21.5405	35.0000	4.1833
21.5687	32.5000	4.0311
21.5970	38.5000	4.3875
21.6253	34.5000	4.1533
21.6535	36.0000	4.2426
21.6818	31.5000	3.9686
21.7101	34.5000	4.1533
21.7383	30.0000	3.8730
21.7666	34.0000	4.1231
21.7949	31.0000	3.9370
21.8231	28.5000	3.7749
21.8514	36.5000	4.2720
21.8797	31.5000	3.9686
21.9079	41.0000	4.5277
21.9362	31.0000	3.9370
21.9645	34.5000	4.1533
21.9927	32.5000	4.0311
22.0210	34.5000	4.1533
22.0493	31.0000	3.9370
22.0775	31.0000	3.9370
22.1058	36.0000	4.2426
22.1340	34.0000	4.1231
22.1623	35.0000	4.1833
22.1906	36.0000	4.2426
22.2188	32.0000	4.0000
22.2471	35.0000	4.1833
22.2754	30.0000	3.8730
22.3036	34.0000	4.1231
22.3319	41.5000	4.5552
22.3602	33.0000	4.0620
22.3884	32.5000	4.0311
22.4167	35.0000	4.1833
22.4450	36.5000	4.2720
22.4732	34.0000	4.1231
22.5015	33.0000	4.0620
22.5298	41.5000	4.5552
22.5580	30.5000	3.9051
22.5863	27.0000	3.6742
22.6146	30.5000	3.9051
22.6428	32.5000	4.0311
22.6711	33.5000	4.0927
22.6994	25.5000	3.5707
22.7276	26.0000	3.6056
22.7559	32.5000	4.0311
22.7842	35.5000	4.2131
22.8124	36.5000	4.2720
22.8407	32.0000	4.0000
22.8690	33.0000	4.0620
22.8972	31.5000	3.9686
22.9255	29.0000	3.8079
22.9538	34.0000	4.1231
22.9820	28.5000	3.7749
23.0103	25.0000	3.5355
23.0385	26.0000	3.6056
23.0668	28.5000	3.7749
23.0951	26.5000	3.6401
23.1233	27.0000	3.6742
23.1516	25.5000	3.5707
23.1799	28.5000	3.7749
23.2081	29.0000	3.8079
23.2364	32.5000	4.0311
23.2647	24.5000	3.5000
23.2929	30.0000	3.8730
23.3212	36.0000	4.2426
23.3495	31.5000	3.9686
23.3777	21.5000	3.2787
23.4060	30.5000	3.9051
23.4343	33.5000	4.0927
23.4625	25.5000	3.5707
23.4908	30.0000	3.8730
23.5191	32.0000	4.0000
23.5473	31.0000	3.9370
23.5756	28.5000	3.7749
23.6039	16.0000	2.8284
23.6321	25.0000	3.5355
23.6604	30.0000	3.8730
23.6887	24.5000	3.5000
23.7169	28.5000	3.7749
23.7452	24.0000	3.4641
23.7735	34.0000	4.1231
23.8017	32.5000	4.0311
23.8300	25.5000	3.5707
23.8582	22.0000	3.3166
23.8865	27.5000	3.7081
23.9148	27.0000	3.6742
23.9430	28.5000	3.7749
23.9713	28.0000	3.7417
23.9996	25.5000	3.5707
24.0278	29.0000	3.8079
24.0561	25.0000	3.5355
24.0844	27.5000	3.7081
24.1126	20.0000	3.1623
24.1409	20.5000	3.2016
24.1692	23.0000	3.3912
24.1974	26.5000	3.6401
24.2257	29.5000	3.8406
24.2540	34.5000	4.1533
24.2822	25.5000	3.5707
24.3105	24.5000	3.5000
24.3388	29.5000	3.8406
24.3670	23.5000	3.4278
24.3953	24.5000	3.5000
24.4236	26.5000	3.6401
24.4518	29.5000	3.8406
24.4801	25.5000	3.5707
24.5084	24.5000	3.5000
24.5366	24.5000	3.5000
24.5649	22.5000	3.3541
24.5932	25.0000	3.5355
24.6214	28.5000	3.7749
24.6497	27.0000	3.6742
24.6780	26.0000	3.6056
24.7062	26.0000	3.6056
24.7345	25.5000	3.5707
24.7627	30.0000	3.8730
24.7910	28.5000	3.7749
24.8193	29.0000	3.8079
24.8475	26.0000	3.6056
24.8758	33.5000	4.0927
24.9041	28.0000	3.7417
24.9323	23.0000	3.3912
24.9606	23.5000	3.4278
24.9889	29.5000	3.8406
25.0171	25.5000	3.5707
25.0454	26.0000	3.6056
25.0737	26.5000	3.6401
25.1019	23.5000	3.4278
25.1302	29.0000	3.8079
25.1585	23.0000	3.3912
25.1867	19.0000	3.0822
25.2150	20.5000	3.2016
25.2433	24.5000	3.5000
25.2715	17.5000	2.9580
25.2998	21.5000	3.2787
25.3281	21.0000	3.2404
25.3563	29.5000	3.8406
25.3846	21.0000	3.2404
25.4129	25.0000	3.5355
25.4411	21.0000	3.2404
25.4694	19.0000	3.0822
25.4977	25.0000	3.5355
25.5259	21.0000	3.2404
25.5542	22.5000	3.3541
25.5824	15.5000	2.7839
25.6107	27.5000	3.7081
25.6390	19.5000	3.1225
25.6672	25.0000	3.5355
25.6955	23.5000	3.4278
25.7238	20.5000	3.2016
25.7520	19.5000	3.1225
25.7803	28.0000	3.7417
25.8086	24.0000	3.4641
25.8368	29.5000	3.8406
25.8651	29.5000	3.8406
25.8934	26.0000	3.6056
25.9216	23.0000	3.3912
25.9499	25.0000	3.5355
25.9782	25.5000	3.5707
26.0064	16.5000	2.8723
26.0347	23.0000	3.3912
26.0630	21.5000	3.2787
26.0912	28.0000	3.7417
26.1195	16.5000	2.8723
26.1478	22.0000	3.3166
26.1760	30.5000	3.9051
26.2043	24.0000	3.4641
26.2326	23.0000	3.3912
26.2608	22.5000	3.3541
26.2891	24.0000	3.4641
26.3174	26.5000	3.6401
26.3456	21.0000	3.2404
26.3739	18.5000	3.0414
26.4021	22.0000	3.3166
26.4304	17.0000	2.9155
26.4587	23.0000	3.3912
26.4869	21.5000	3.2787
26.5152	20.0000	3.1623
26.5435	22.5000	3.3541
26.5717	22.5000	3.3541
26.6000	23.5000	3.4278
26.6283	27.5000	3.7081
26.6565	30.5000	3.9051
26.6848	40.5000	4.5000
26.7131	41.0000	4.5277
26.7413	42.0000	4.5826
26.7696	24.5000	3.5000
26.7979	34.0000	4.1231
26.8261	19.5000	3.1225
26.8544	22.5000	3.3541
26.8827	17.0000	2.9155
26.9109	17.5000	2.9580
26.9392	26.0000	3.6056
26.9675	26.5000	3.6401
26.9957	21.5000	3.2787
27.0240	20.0000	3.1623
27.0523	16.0000	2.8284
27.0805	20.0000	3.1623
27.1088	21.5000	3.2787
27.1371	22.5000	3.3541
27.1653	24.5000	3.5000
27.1936	20.5000	3.2016
27.2219	18.0000	3.0000
27.2501	23.0000	3.3912
27.2784	25.0000	3.5355
27.3066	24.0909	3.3091
27.3349	20.9091	3.0829
27.3632	18.1818	2.8748
27.3914	19.5455	2.9807
27.4197	24.5455	3.3402
27.4480	20.9091	3.0829
27.4762	20.4545	3.0492
27.5045	24.0909	3.3091
27.5328	20.4545	3.0492
27.5610	28.1818	3.5791
27.5893	24.0909	3.3091
27.6176	17.7273	2.8386
27.6458	20.9091	3.0829
27.6741	20.9091	3.0829
27.7024	17.7273	2.8386
27.7306	24.5455	3.3402
27.7589	23.1818	3.2461
27.7872	17.7273	2.8386
27.8154	20.4545	3.0492
27.8437	18.6364	2.9105
27.8720	20.9091	3.0829
27.9002	20.9091	3.0829
27.9285	26.3636	3.4617
27.9568	25.0000	3.3710
27.9850	21.3636	3.1162
28.0133	25.0000	3.3710
28.0416	21.8182	3.1492
28.0698	21.8182	3.1492
28.0981	21.8182	3.1492
28.1263	21.3636	3.1162
28.1546	28.1818	3.5791
28.1829	20.0000	3.0151
28.2111	23.6364	3.2778
28.2394	19.0909	2.9458
28.2677	23.1818	3.2461
28.2959	21.8182	3.1492
28.3242	21.3636	3.1162
28.3525	21.3636	3.1162
28.3807	24.5455	3.3402
28.4090	20.4545	3.0492
28.4373	27.2727	3.5209
28.4655	28.1818	3.5791
28.4938	22.2727	3.1818
28.5221	29.0909	3.6364
28.5503	21.8182	3.1492
28.5786	20.4545	3.0492
28.6069	22.2727	3.1818
28.6351	20.4545	3.0492
28.6634	21.8182	3.1492
28.6917	24.5455	3.3402
28.7199	20.4545	3.0492
28.7482	19.0909	2.9458
28.7765	18.1818	2.8748
28.8047	24.0909	3.3091
28.8330	21.8182	3.1492
28.8613	21.8182	3.1492
28.8895	16.8182	2.7649
28.9178	19.0909	2.9458
28.9461	21.8182	3.1492
28.9743	15.9091	2.6891
29.0026	18.6364	2.9105
29.0308	18.6364	2.9105
29.0591	23.6364	3.2778
29.0874	27.2727	3.5209
29.1156	17.7273	2.8386
29.1439	20.9091	3.0829
29.1722	23.6364	3.2778
29.2004	21.8182	3.1492
29.2287	26.8182	3.4914
29.2570	19.5455	2.9807
29.2852	18.6364	2.9105
29.3135	20.0000	3.0151
29.3418	21.3636	3.1162
29.3700	16.3636	2.7273
29.3983	20.9091	3.0829
29.4266	15.9091	2.6891
29.4548	20.0000	3.0151
29.4831	16.8182	2.7649
29.5114	17.7273	2.8386
29.5396	19.5455	2.9807
29.5679	18.1818	2.8748
29.5962	17.7273	2.8386
29.6244	21.8182	3.1492
29.6527	24.0909	3.3091
29.6810	18.6364	2.9105
29.7092	14.0909	2.5308
29.7375	24.0909	3.3091
29.7658	24.5455	3.3402
29.7940	15.9091	2.6891
29.8223	22.2727	3.1818
29.8505	21.8182	3.1492
29.8788	22.2727	3.1818
29.9071	18.6364	2.9105
29.9353	17.2727	2.8020
29.9636	22.7273	3.2141
29.9919	24.0909	3.3091
30.0201	19.0909	2.9458
30.0484	16.3636	2.7273
30.0767	14.0909	2.5308
30.1049	22.2727	3.1818
30.1332	17.2727	2.8020
30.1615	25.4545	3.4015
30.1897	18.6364	2.9105
30.2180	19.5455	2.9807
30.2463	20.4545	3.0492
30.2745	19.0909	2.9458
30.3028	20.0000	3.0151
30.3311	20.4545	3.0492
30.3593	17.2727	2.8020
30.3876	17.7273	2.8386
30.4159	19.0909	2.9458
30.4441	22.2727	3.1818
30.4724	19.5455	2.9807
30.5007	15.0000	2.6112
30.5289	16.8182	2.7649
30.5572	20.9091	3.0829
30.5855	24.0909	3.3091
30.6137	17.7273	2.8386
30.6420	20.0000	3.0151
30.6702	16.8182	2.7649
30.6985	22.2727	3.1818
30.7268	16.8182	2.7649
30.7550	20.9091	3.0829
30.7833	17.2727	2.8020
30.8116	17.2727	2.8020
30.8398	16.8182	2.7649
30.8681	19.0909	2.9458
30.8964	15.0000	2.6112
30.9246	15.0000	2.6112
30.9529	15.9091	2.6891
30.9812	20.4545	3.0492
31.0094	16.8182	2.7649
31.0377	23.1818	3.2461
31.0660	19.0909	2.9458
31.0942	24.0909	3.3091
31.1225	12.2727	2.3619
31.1508	15.9091	2.6891
31.1790	15.9091	2.6891
31.2073	17.2727	2.8020
31.2356	17.7273	2.8386
31.2638	19.0909	2.9458
31.2921	21.8182	3.1492
31.3204	19.5455	2.9807
31.3486	15.9091	2.6891
31.3769	18.6364	2.9105
31.4052	18.1818	2.8748
31.4334	19.0909	2.9458
31.4617	12.7273	2.4052
31.4900	16.8182	2.7649
31.5182	20.0000	3.0151
31.5465	19.5455	2.9807
31.5747	13.6364	2.4896
31.6030	11.8182	2.3177
31.6313	20.0000	3.0151
31.6595	22.7273	3.2141
31.6878	14.5455	2.5713
31.7161	16.8182	2.7649
31.7443	17.2727	2.8020
31.7726	24.5455	3.3402
31.8009	13.1818	2.4478
31.8291	20.0000	3.0151
31.8574	24.5455	3.3402
31.8857	17.7273	2.8386
31.9139	18.6364	2.9105
31.9422	17.7273	2.8386
31.9705	17.2727	2.8020
31.9987	19.0909	2.9458
32.0270	17.2727	2.8020
32.0553	16.8182	2.7649
32.0835	12.2727	2.3619
32.1118	14.0909	2.5308
32.1401	20.0000	3.0151
32.1683	14.5455	2.5713
32.1966	17.7273	2.8386
32.2249	16.3636	2.7273
32.2531	17.7273	2.8386
32.2814	16.8182	2.7649
32.3097	11.8182	2.3177
32.3379	15.0000	2.6112
32.3662	17.2727	2.8020
32.3944	16.3636	2.7273
32.4227	12.7273	2.4052
32.4510	15.9091	2.6891
32.4792	16.3636	2.7273
32.5075	15.9091	2.6891
32.5358	20.0000	3.0151
32.5640	14.5455	2.5713
32.5923	23.6364	3.2778
32.6206	14.5455	2.5713
32.6488	24.0909	3.3091
32.6771	15.9091	2.6891
32.7054	15.0000	2.6112
32.7336	18.6364	2.9105
32.7619	13.6364	2.4896
32.7902	10.4545	2.1799
32.8184	10.4545	2.1799
32.8467	17.2727	2.8020
32.8750	16.3636	2.7273
32.9032	24.0909	3.3091
32.9315	17.2727	2.8020
32.9598	16.3636	2.7273
32.9880	22.7273	3.2141
33.0163	15.4545	2.6504
33.0446	15.9091	2.6891
33.0728	18.6364	2.9105
33.1011	13.6364	2.4896
33.1294	16.8182	2.7649
33.1576	11.8182	2.3177
33.1859	15.0000	2.6112
33.2142	16.8182	2.7649
33.2424	16.3636	2.7273
33.2707	14.5455	2.5713
33.2989	15.9091	2.6891
33.3272	15.0000	2.6112
33.3555	15.9091	2.6891
33.3837	15.4545	2.6504
33.4120	11.3636	2.2727
33.4403	16.3636	2.7273
33.4685	10.0000	2.1320
33.4968	13.1818	2.4478
33.5251	16.8182	2.7649
33.5533	16.8182	2.7649
33.5816	14.5455	2.5713
33.6099	17.2727	2.8020
33.6381	15.4545	2.6504
33.6664	15.9091	2.6891
33.6947	14.0909	2.5308
33.7229	18.1818	2.8748
33.7512	19.0909	2.9458
33.7795	13.6364	2.4896
33.8077	17.7273	2.8386
33.8360	11.8182	2.3177
33.8643	19.5455	2.9807
33.8925	15.0000	2.6112
33.9208	17.7273	2.8386
33.9491	14.0909	2.5308
33.9773	11.3636	2.2727
34.0056	17.7273	2.8386
34.0339	10.9091	2.2268
34.0621	10.4545	2.1799
34.0904	18.6364	2.9105
34.1186	15.4545	2.6504
34.1469	11.8182	2.3177
34.1752	19.0909	2.9458
34.2034	14.0909	2.5308
34.2317	11.8182	2.3177
34.2600	16.3636	2.7273
34.2882	14.0909	2.5308
34.3165	15.4545	2.6504
34.3448	12.7273	2.4052
34.3730	14.5455	2.5713
34.4013	9.5455	2.0830
34.4296	16.8182	2.7649
34.4578	20.9091	3.0829
34.4861	20.9091	3.0829
34.5144	9.5455	2.0830
34.5426	17.7273	2.8386
34.5709	15.4545	2.6504
34.5992	15.4545	2.6504
34.6274	13.1818	2.4478
34.6557	13.1818	2.4478
34.6840	12.7273	2.4052
34.7122	18.1818	2.8748
34.7405	17.2727	2.8020
34.7688	17.7273	2.8386
34.7970	19.0909	2.9458
34.8253	18.1818	2.8748
34.8536	20.9091	3.0829
34.8818	23.6364	3.2778
34.9101	19.5455	2.9807
34.9383	16.8182	2.7649
34.9666	12.2727	2.3619
34.9949	20.9091	3.0829
35.0231	17.2727	2.8020
35.0514	14.5455	2.5713
35.0797	15.4545	2.6504
35.1079	15.4545	2.6504
35.1362	15.9091	2.6891
35.1645	15.4545	2.6504
35.1927	13.1818	2.4478
35.2210	16.8182	2.7649
35.2493	12.2727	2.3619
35.2775	16.8182	2.7649
35.3058	15.9091	2.6891
35.3341	12.7273	2.4052
35.3623	21.3636	3.1162
35.3906	12.7273	2.4052
35.4189	10.9091	2.2268
35.4471	13.6364	2.4896
35.4754	15.4545	2.6504
35.5037	19.0909	2.9458
35.5319	18.1818	2.8748
35.5602	12.7273	2.4052
35.5885	14.0909	2.5308
35.6167	18.6364	2.9105
35.6450	15.4545	2.6504
35.6733	13.1818	2.4478
35.7015	13.1818	2.4478
35.7298	20.9091	3.0829
35.7581	11.8182	2.3177
35.7863	12.2727	2.3619
35.8146	10.0000	2.1320
35.8428	16.3636	2.7273
35.8711	12.7273	2.4052
35.8994	9.5455	2.0830
35.9276	16.8182	2.7649
35.9559	13.1818	2.4478
35.9842	14.0909	2.5308
36.0124	12.2727	2.3619
36.0407	15.9091	2.6891
36.0690	11.1538	2.0712
36.0972	12.6923	2.2094
36.1255	11.5385	2.1066
36.1538	15.7692	2.4627
36.1820	10.7692	2.0352
36.2103	10.0000	1.9612
36.2386	11.5385	2.1066
36.2668	15.7692	2.4627
36.2951	12.3077	2.1757
36.3234	13.8462	2.3077
36.3516	15.0000	2.4019
36.3799	10.7692	2.0352
36.4082	13.4615	2.2754
36.4364	16.1538	2.4926
36.4647	13.0769	2.2427
36.4930	9.2308	1.8842
36.5212	13.8462	2.3077
36.5495	11.5385	2.1066
36.5778	14.6154	2.3709
36.6060	17.3077	2.5801
36.6343	11.9231	2.1414
36.6625	13.0769	2.2427
36.6908	17.6923	2.6086
36.7191	12.3077	2.1757
36.7473	9.2308	1.8842
36.7756	8.8462	1.8446
36.8039	15.7692	2.4627
36.8321	15.7692	2.4627
36.8604	11.9231	2.1414
36.8887	15.7692	2.4627
36.9169	16.9231	2.5512
36.9452	10.3846	1.9985
36.9735	13.0769	2.2427
37.0017	12.3077	2.1757
37.0300	12.3077	2.1757
37.0583	14.6154	2.3709
37.0865	9.6154	1.9231
37.1148	16.1538	2.4926
37.1431	17.3077	2.5801
37.1713	12.3077	2.1757
37.1996	10.7692	2.0352
37.2279	18.4615	2.6647
37.2561	9.2308	1.8842
37.2844	11.9231	2.1414
37.3127	11.9231	2.1414
37.3409	16.1538	2.4926
37.3692	14.6154	2.3709
37.3975	11.1538	2.0712
37.4257	13.4615	2.2754
37.4540	10.7692	2.0352
37.4823	16.1538	2.4926
37.5105	14.6154	2.3709
37.5388	18.0769	2.6368
37.5670	13.0769	2.2427
37.5953	13.8462	2.3077
37.6236	14.2308	2.3395
37.6518	16.1538	2.4926
37.6801	11.5385	2.1066
37.7084	14.6154	2.3709
37.7366	16.5385	2.5221
37.7649	13.8462	2.3077
37.7932	14.2308	2.3395
37.8214	15.7692	2.4627
37.8497	16.1538	2.4926
37.8780	14.6154	2.3709
37.9062	15.0000	2.4019
37.9345	16.9231	2.5512
37.9628	11.9231	2.1414
37.9910	18.4615	2.6647
38.0193	19.2308	2.7196
38.0476	19.2308	2.7196
38.0758	12.3077	2.1757
38.1041	16.1538	2.4926
38.1324	12.3077	2.1757
38.1606	13.0769	2.2427
38.1889	17.6923	2.6086
38.2172	13.8462	2.3077
38.2454	13.4615	2.2754
38.2737	13.0769	2.2427
38.3020	13.8462	2.3077
38.3302	18.4615	2.6647
38.3585	13.0769	2.2427
38.3867	12.6923	2.2094
38.4150	12.3077	2.1757
38.4433	14.6154	2.3709
38.4715	8.8462	1.8446
38.4998	13.0769	2.2427
38.5281	15.0000	2.4019
38.5563	11.5385	2.1066
38.5846	10.7692	2.0352
38.6129	15.7692	2.4627
38.6411	8.0769	1.7625
38.6694	12.3077	2.1757
38.6977	10.7692	2.0352
38.7259	16.1538	2.4926
38.7542	13.4615	2.2754
38.7825	11.9231	2.1414
38.8107	17.6923	2.6086
38.8390	10.7692	2.0352
38.8673	16.1538	2.4926
38.8955	13.4615	2.2754
38.9238	14.6154	2.3709
38.9521	11.1538	2.0712
38.9803	10.7692	2.0352
39.0086	11.9231	2.1414
39.0369	13.4615	2.2754
39.0651	13.4615	2.2754
39.0934	11.5385	2.1066
39.1217	16.1538	2.4926
39.1499	15.3846	2.4325
39.1782	15.3846	2.4325
39.2064	14.2308	2.3395
39.2347	16.9231	2.5512
39.2630	13.8462	2.3077
39.2912	15.0000	2.4019
39.3195	14.2308	2.3395
39.3478	13.8462	2.3077
39.3760	16.1538	2.4926
39.4043	19.2308	2.7196
39.4326	18.0769	2.6368
39.4608	18.0769	2.6368
39.4891	16.1538	2.4926
39.5174	16.5385	2.5221
39.5456	12.3077	2.1757
39.5739	19.2308	2.7196
39.6022	21.5385	2.8782
39.6304	23.0769	2.9792
39.6587	20.3846	2.8000
39.6870	28.0769	3.2862
39.7152	25.3846	3.1246
39.7435	26.9231	3.2179
39.7718	31.9231	3.5040
39.8000	34.6154	3.6488
39.8283	46.1538	4.2133
39.8566	58.8462	4.7574
39.8848	56.5385	4.6632
39.9131	75.7692	5.3983
39.9414	70.0000	5.1887
39.9696	101.5385	6.2493
39.9979	115.3846	6.6617
40.0262	166.5385	8.0033
40.0544	228.8462	9.3818
40.0827	217.3077	9.1422
40.1109	187.6923	8.4964
40.1392	177.6923	8.2670
40.1675	161.9231	7.8916
40.1957	133.0769	7.1543
40.2240	109.2308	6.4817
40.2523	71.5385	5.2455
40.2805	65.3846	5.0148
40.3088	45.0000	4.1603
40.3371	41.5385	3.9970
40.3653	32.6923	3.5460
40.3936	29.6154	3.3750
40.4219	25.3846	3.1246
40.4501	24.2308	3.0528
40.4784	26.9231	3.2179
40.5067	21.9231	2.9038
40.5349	21.5385	2.8782
40.5632	19.2308	2.7196
40.5915	18.8462	2.6923
40.6197	17.3077	2.5801
40.6480	12.6923	2.2094
40.6763	15.0000	2.4019
40.7045	11.1538	2.0712
40.7328	13.4615	2.2754
40.7611	20.3846	2.8000
40.7893	14.2308	2.3395
40.8176	18.4615	2.6647
40.8459	14.6154	2.3709
40.8741	16.1538	2.4926
40.9024	15.3846	2.4325
40.9306	9.6154	1.9231
40.9589	11.9231	2.1414
40.9872	9.6154	1.9231
41.0154	9.2308	1.8842
41.0437	10.7692	2.0352
41.0720	15.0000	2.4019
41.1002	10.7692	2.0352
41.1285	12.3077	2.1757
41.1568	9.6154	1.9231
41.1850	13.0769	2.2427
41.2133	11.9231	2.1414
41.2416	14.2308	2.3395
41.2698	14.6154	2.3709
41.2981	15.0000	2.4019
41.3264	9.6154	1.9231
41.3546	12.3077	2.1757
41.3829	10.0000	1.9612
41.4112	7.6923	1.7201
41.4394	14.6154	2.3709
41.4677	11.5385	2.1066
41.4960	12.6923	2.2094
41.5242	9.6154	1.9231
41.5525	13.4615	2.2754
41.5808	10.3846	1.9985
41.6090	10.0000	1.9612
41.6373	7.6923	1.7201
41.6656	10.3846	1.9985
41.6938	11.5385	2.1066
41.7221	12.3077	2.1757
41.7504	13.8462	2.3077
41.7786	14.2308	2.3395
41.8069	12.6923	2.2094
41.8351	10.0000	1.9612
41.8634	9.2308	1.8842
41.8917	12.3077	2.1757
41.9199	12.3077	2.1757
41.9482	11.5385	2.1066
41.9765	12.3077	2.1757
42.0047	15.3846	2.4325
42.0330	10.7692	2.0352
42.0613	13.0769	2.2427
42.0895	11.9231	2.1414
42.1178	13.0769	2.2427
42.1461	8.8462	1.8446
42.1743	6.5385	1.5858
42.2026	9.2308	1.8842
42.2309	11.9231	2.1414
42.2591	14.6154	2.3709
42.2874	12.3077	2.1757
42.3157	13.0769	2.2427
42.3439	10.7692	2.0352
42.3722	8.4615	1.8040
42.4005	9.6154	1.9231
42.4287	6.9231	1.6318
42.4570	13.0769	2.2427
42.4853	10.0000	1.9612
42.5135	11.1538	2.0712
42.5418	10.0000	1.9612
42.5701	12.6923	2.2094
42.5983	11.9231	2.1414
42.6266	8.8462	1.8446
42.6548	12.3077	2.1757
42.6831	9.6154	1.9231
42.7114	8.8462	1.8446
42.7396	14.6154	2.3709
42.7679	11.9231	2.1414
42.7962	5.3846	1.4391
42.8244	12.6923	2.2094
42.8527	11.1538	2.0712
42.8810	10.7692	2.0352
42.9092	10.0000	1.9612
42.9375	13.4615	2.2754
42.9658	11.1538	2.0712
42.9940	10.0000	1.9612
43.0223	7.3077	1.6765
43.0506	8.8462	1.8446
43.0788	8.0769	1.7625
43.1071	7.6923	1.7201
43.1354	13.0769	2.2427
43.1636	10.7692	2.0352
43.1919	8.4615	1.8040
43.2202	10.0000	1.9612
43.2484	14.6154	2.3709
43.2767	11.5385	2.1066
43.3050	11.1538	2.0712
43.3332	12.3077	2.1757
43.3615	7.6923	1.7201
43.3898	12.6923	2.2094
43.4180	11.1538	2.0712
43.4463	11.5385	2.1066
43.4745	10.0000	1.9612
43.5028	10.7692	2.0352
43.5311	9.2308	1.8842
43.5593	10.3846	1.9985
43.5876	10.3846	1.9985
43.6159	14.6154	2.3709
43.6441	10.0000	1.9612
43.6724	8.4615	1.8040
43.7007	9.6154	1.9231
43.7289	7.6923	1.7201
43.7572	10.3846	1.9985
43.7855	13.4615	2.2754
43.8137	15.3846	2.4325
43.8420	10.0000	1.9612
43.8703	13.0769	2.2427
43.8985	10.7692	2.0352
43.9268	8.0769	1.7625
43.9551	12.6923	2.2094
43.9833	8.0769	1.7625
44.0116	12.3077	2.1757
44.0399	12.6923	2.2094
44.0681	8.0769	1.7625
44.0964	9.2308	1.8842
44.1247	9.2308	1.8842
44.1529	14.2308	2.3395
44.1812	6.9231	1.6318
44.2095	8.8462	1.8446
44.2377	9.2308	1.8842
44.2660	11.5385	2.1066
44.2943	8.4615	1.8040
44.3225	11.5385	2.1066
44.3508	11.5385	2.1066
44.3790	10.3846	1.9985
44.4073	8.8462	1.8446
44.4356	10.3846	1.9985
44.4638	10.3846	1.9985
44.4921	10.3846	1.9985
44.5204	11.1538	2.0712
44.5486	8.0769	1.7625
44.5769	6.9231	1.6318
44.6052	7.6667	1.5986
44.6334	12.3333	2.0276
44.6617	8.6667	1.6997
44.6900	10.3333	1.8559
44.7182	6.6667	1.4907
44.7465	9.6667	1.7951
44.7748	8.3333	1.6667
44.8030	6.6667	1.4907
44.8313	6.6667	1.4907
44.8596	8.6667	1.6997
44.8878	9.6667	1.7951
44.9161	9.0000	1.7321
44.9444	6.6667	1.4907
44.9726	10.3333	1.8559
45.0009	8.6667	1.6997
45.0292	11.3333	1.9437
45.0574	7.0000	1.5275
45.0857	8.3333	1.6667
45.1140	9.3333	1.7638
45.1422	7.6667	1.5986
45.1705	9.6667	1.7951
45.1987	7.3333	1.5635
45.2270	7.6667	1.5986
45.2553	10.0000	1.8257
45.2835	10.3333	1.8559
45.3118	9.6667	1.7951
45.3401	9.0000	1.7321
45.3683	11.6667	1.9720
45.3966	11.0000	1.9149
45.4249	9.3333	1.7638
45.4531	10.3125	1.7952
45.4814	6.8750	1.4658
45.5097	10.3125	1.7952
45.5379	8.1250	1.5934
45.5662	8.7500	1.6536
45.5945	9.0625	1.6829
45.6227	9.3750	1.7116
45.6510	9.3750	1.7116
45.6793	9.3750	1.7116
45.7075	9.3750	1.7116
45.7358	10.6250	1.8222
45.7641	9.6875	1.7399
45.7923	9.3750	1.7116
45.8206	7.1875	1.4987
45.8489	9.0625	1.6829
45.8771	6.8750	1.4658
45.9054	10.6250	1.8222
45.9337	11.5625	1.9009
45.9619	11.2500	1.8750
45.9902	7.8125	1.5625
46.0184	9.6875	1.7399
46.0467	8.4375	1.6238
46.0750	9.0625	1.6829
46.1032	6.8750	1.4658
46.1315	10.9375	1.8488
46.1598	7.8125	1.5625
46.1880	6.8750	1.4658
46.2163	5.3125	1.2885
46.2446	9.3750	1.7116
46.2728	7.5000	1.5309
46.3011	8.7500	1.6536
46.3294	7.5000	1.5309
46.3576	9.3750	1.7116
46.3859	8.7500	1.6536
46.4142	5.9375	1.3622
46.4424	8.7500	1.6536
46.4707	6.5625	1.4321
46.4990	9.3750	1.7116
46.5272	8.4375	1.6238
46.5555	9.0625	1.6829
46.5838	9.0625	1.6829
46.6120	7.5000	1.5309
46.6403	7.1875	1.4987
46.6686	7.5000	1.5309
46.6968	9.0625	1.6829
46.7251	8.1250	1.5934
46.7534	9.3750	1.7116
46.7816	9.6875	1.7399
46.8099	7.5000	1.5309
46.8382	7.1875	1.4987
46.8664	8.7500	1.6536
46.8947	7.5000	1.5309
46.9229	10.6250	1.8222
46.9512	10.6250	1.8222
46.9795	5.3125	1.2885
47.0077	11.8750	1.9264
47.0360	9.3750	1.7116
47.0643	10.3125	1.7952
47.0925	8.1250	1.5934
47.1208	7.5000	1.5309
47.1491	8.4375	1.6238
47.1773	6.5625	1.4321
47.2056	11.5625	1.9009
47.2339	7.1875	1.4987
47.2621	10.0000	1.7678
47.2904	7.1875	1.4987
47.3187	7.5000	1.5309
47.3469	8.1250	1.5934
47.3752	7.1875	1.4987
47.4035	10.6250	1.8222
47.4317	7.5000	1.5309
47.4600	9.3750	1.7116
47.4883	9.3750	1.7116
47.5165	9.6875	1.7399
47.5448	7.1875	1.4987
47.5731	8.1250	1.5934
47.6013	10.3125	1.7952
47.6296	8.4375	1.6238
47.6579	8.1250	1.5934
47.6861	8.7500	1.6536
47.7144	8.4375	1.6238
47.7426	6.5625	1.4321
47.7709	6.5625	1.4321
47.7992	9.0625	1.6829
47.8274	11.8750	1.9264
47.8557	9.0625	1.6829
47.8840	8.4375	1.6238
47.9122	7.8125	1.5625
47.9405	6.8750	1.4658
47.9688	6.2500	1.3975
47.9970	7.1875	1.4987
48.0253	7.8125	1.5625
48.0536	9.0625	1.6829
48.0818	8.1250	1.5934
48.1101	8.1250	1.5934
48.1384	7.8125	1.5625
48.1666	9.3750	1.7116
48.1949	8.1250	1.5934
48.2232	8.4375	1.6238
48.2514	6.5625	1.4321
48.2797	9.3750	1.7116
48.3080	7.5000	1.5309
48.3362	9.0625	1.6829
48.3645	6.5625	1.4321
48.3928	8.4375	1.6238
48.4210	8.4375	1.6238
48.4493	6.5625	1.4321
48.4776	9.6875	1.7399
48.5058	8.4375	1.6238
48.5341	5.9375	1.3622
48.5624	5.9375	1.3622
48.5906	8.1250	1.5934
48.6189	5.9375	1.3622
48.6471	7.8125	1.5625
48.6754	7.5000	1.5309
48.7037	8.4375	1.6238
48.7319	10.0000	1.7678
48.7602	9.3750	1.7116
48.7885	4.3750	1.1693
48.8167	5.3125	1.2885
48.8450	8.1250	1.5934
48.8733	5.6250	1.3258
48.9015	7.1875	1.4987
48.9298	10.9375	1.8488
48.9581	7.8125	1.5625
48.9863	5.9375	1.3622
49.0146	6.2500	1.3975
49.0429	9.6875	1.7399
49.0711	10.6250	1.8222
49.0994	7.1875	1.4987
49.1277	7.8125	1.5625
49.1559	8.1250	1.5934
49.1842	4.3750	1.1693
49.2125	7.8125	1.5625
49.2407	9.3750	1.7116
49.2690	9.6875	1.7399
49.2973	6.2500	1.3975
49.3255	9.3750	1.7116
49.3538	7.1875	1.4987
49.3821	7.1875	1.4987
49.4103	8.4375	1.6238
49.4386	8.7500	1.6536
49.4668	8.7500	1.6536
49.4951	6.8750	1.4658
49.5234	7.5000	1.5309
49.5516	10.0000	1.7678
49.5799	8.7500	1.6536
49.6082	9.0625	1.6829
49.6364	7.5000	1.5309
49.6647	9.3750	1.7116
49.6930	5.9375	1.3622
49.7212	6.5625	1.4321
49.7495	7.8125	1.5625
49.7778	5.0000	1.2500
49.8060	7.1875	1.4987
49.8343	10.6250	1.8222
49.8626	5.9375	1.3622
49.8908	10.3125	1.7952
49.9191	8.1250	1.5934
49.9474	8.7500	1.6536
49.9756	8.4375	1.6238
50.0039	10.3125	1.7952
50.0322	6.5625	1.4321
50.0604	9.6875	1.7399
50.0887	6.8750	1.4658
50.1170	5.3125	1.2885
50.1452	8.7500	1.6536
50.1735	8.1250	1.5934
50.2018	9.6875	1.7399
50.2300	7.5000	1.5309
50.2583	7.8125	1.5625
50.2865	8.1250	1.5934
50.3148	5.6250	1.3258
50.3431	8.7500	1.6536
50.3713	9.3750	1.7116
50.3996	9.0625	1.6829
50.4279	7.1875	1.4987
50.4561	6.8750	1.4658
50.4844	7.5000	1.5309
50.5127	10.3125	1.7952
50.5409	7.1875	1.4987
50.5692	7.5000	1.5309
50.5975	5.9375	1.3622
50.6257	8.1250	1.5934
50.6540	7.1875	1.4987
50.6823	6.5625	1.4321
50.7105	8.7500	1.6536
50.7388	6.5625	1.4321
50.7671	9.3750	1.7116
50.7953	9.3750	1.7116
50.8236	8.4375	1.6238
50.8519	5.6250	1.3258
50.8801	4.3750	1.1693
50.9084	6.5625	1.4321
50.9367	6.8750	1.4658
50.9649	11.2500	1.8750
50.9932	8.1250	1.5934
51.0215	6.8750	1.4658
51.0497	9.6875	1.7399
51.0780	9.3750	1.7116
51.1063	9.3750	1.7116
51.1345	8.4375	1.6238
51.1628	5.3125	1.2885
51.1910	8.1250	1.5934
51.2193	9.3750	1.7116
51.2476	8.7500	1.6536
51.2758	8.4375	1.6238
51.3041	7.8125	1.5625
51.3324	8.4375	1.6238
51.3606	9.3750	1.7116
51.3889	7.1875	1.4987
51.4172	10.0000	1.7678
51.4454	10.0000	1.7678
51.4737	7.8125	1.5625
51.5020	5.6250	1.3258
51.5302	6.2500	1.3975
51.5585	9.0625	1.6829
51.5868	9.3750	1.7116
51.6150	4.3750	1.1693
51.6433	6.8750	1.4658
51.6716	5.3125	1.2885
51.6998	7.1875	1.4987
51.7281	8.4375	1.6238
51.7564	7.5000	1.5309
51.7846	7.5000	1.5309
51.8129	6.8750	1.4658
51.8412	7.5000	1.5309
51.8694	5.3125	1.2885
51.8977	7.5000	1.5309
51.9260	5.6250	1.3258
51.9542	12.1875	1.9516
51.9825	12.5000	1.9764
52.0107	5.9375	1.3622
52.0390	7.8125	1.5625
52.0673	9.3750	1.7116
52.0955	8.4375	1.6238
52.1238	7.5000	1.5309
52.1521	9.3750	1.7116
52.1803	7.5000	1.5309
52.2086	7.5000	1.5309
52.2369	7.5000	1.5309
52.2651	9.6875	1.7399
52.2934	10.3125	1.7952
52.3217	9.0625	1.6829
52.3499	12.8125	2.0010
52.3782	9.3750	1.7116
52.4065	14.0625	2.0963
52.4347	17.5000	2.3385
52.4630	11.5625	1.9009
52.4913	13.7500	2.0729
52.5195	15.2941	2.1209
52.5478	14.1176	2.0377
52.5761	17.3529	2.2592
52.6043	9.4118	1.6638
52.6326	10.5882	1.7647
52.6609	12.9412	1.9510
52.6891	12.6471	1.9287
52.7174	7.0588	1.4409
52.7457	9.1176	1.6376
52.7739	5.0000	1.2127
52.8022	8.5294	1.5839
52.8305	7.0588	1.4409
52.8587	10.5882	1.7647
52.8870	7.9412	1.5283
52.9152	6.7647	1.4105
52.9435	6.7647	1.4105
52.9718	7.6471	1.4997
53.0000	7.9412	1.5283
53.0283	10.8824	1.7890
53.0566	4.4118	1.1391
53.0848	8.2353	1.5563
53.1131	8.2353	1.5563
53.1414	9.4118	1.6638
53.1696	6.1765	1.3478
53.1979	9.4118	1.6638
53.2262	7.6471	1.4997
53.2544	6.7647	1.4105
53.2827	7.0588	1.4409
53.3110	9.1176	1.6376
53.3392	4.1176	1.1005
53.3675	6.7647	1.4105
53.3958	9.4118	1.6638
53.4240	6.7647	1.4105
53.4523	5.2941	1.2478
53.4806	5.8333	1.2729
53.5088	10.2778	1.6897
53.5371	8.8889	1.5713
53.5654	8.0556	1.4959
53.5936	6.9444	1.3889
53.6219	7.2222	1.4164
53.6502	8.3333	1.5215
53.6784	10.0000	1.6667
53.7067	6.1111	1.3029
53.7349	6.1111	1.3029
53.7632	6.6667	1.3608
53.7915	9.1667	1.5957
53.8197	8.6111	1.5466
53.8480	6.6667	1.3608
53.8763	7.5000	1.4434
53.9045	7.7778	1.4699
53.9328	6.3889	1.3322
53.9611	8.6111	1.5466
53.9893	10.2778	1.6897
54.0176	7.5000	1.4434
54.0459	11.6667	1.8002
54.0741	8.6111	1.5466
54.1024	8.3333	1.5215
54.1307	8.6111	1.5466
54.1589	8.0556	1.4959
54.1872	7.2222	1.4164
54.2155	8.3333	1.5215
54.2437	8.6111	1.5466
54.2720	6.6667	1.3608
54.3003	6.6667	1.3608
54.3285	7.2222	1.4164
54.3568	8.6111	1.5466
54.3851	9.4444	1.6197
54.4133	5.5556	1.2423
54.4416	5.8333	1.2729
54.4699	5.8333	1.2729
54.4981	9.7222	1.6434
54.5264	8.3333	1.5215
54.5546	6.3889	1.3322
54.5829	9.4444	1.6197
54.6112	8.8889	1.5713
54.6394	8.8889	1.5713
54.6677	7.5000	1.4434
54.6960	8.0556	1.4959
54.7242	10.0000	1.6667
54.7525	10.8333	1.7347
54.7808	11.1111	1.7568
54.8090	7.5000	1.4434
54.8373	6.9444	1.3889
54.8656	7.2222	1.4164
54.8938	7.7778	1.4699
54.9221	6.3889	1.3322
54.9504	6.9444	1.3889
54.9786	6.1111	1.3029
55.0069	11.6667	1.8002
55.0352	8.6111	1.5466
55.0634	10.2778	1.6897
55.0917	10.2778	1.6897
55.1200	9.7222	1.6434
55.1482	7.5000	1.4434
55.1765	7.7778	1.4699
55.2048	5.2778	1.2108
55.2330	6.9444	1.3889
55.2613	6.9444	1.3889
55.2896	6.9444	1.3889
55.3178	8.0556	1.4959
55.3461	5.8333	1.2729
55.3744	5.0000	1.1785
55.4026	7.5000	1.4434
55.4309	7.5000	1.4434
55.4591	8.0556	1.4959
55.4874	8.8889	1.5713
55.5157	6.3889	1.3322
55.5439	9.1667	1.5957
55.5722	8.6111	1.5466
55.6005	6.6667	1.3608
55.6287	9.7222	1.6434
55.6570	6.9444	1.3889
55.6853	6.9444	1.3889
55.7135	10.0000	1.6667
55.7418	7.5000	1.4434
55.7701	5.5556	1.2423
55.7983	8.8889	1.5713
55.8266	7.5000	1.4434
55.8549	10.0000	1.6667
55.8831	8.0556	1.4959
55.9114	9.7222	1.6434
55.9397	10.8333	1.7347
55.9679	10.0000	1.6667
55.9962	9.4444	1.6197
56.0245	7.7778	1.4699
56.0527	8.3333	1.5215
56.0810	9.4444	1.6197
56.1093	6.1111	1.3029
56.1375	7.7778	1.4699
56.1658	7.5000	1.4434
56.1941	6.3889	1.3322
56.2223	8.6111	1.5466
56.2506	6.9444	1.3889
56.2788	9.1667	1.5957
56.3071	8.8889	1.5713
56.3354	8.3333	1.5215
56.3636	8.6111	1.5466
56.3919	9.1667	1.5957
56.4202	10.5556	1.7123
56.4484	9.7222	1.6434
56.4767	8.3333	1.5215
56.5050	11.6667	1.8002
56.5332	10.0000	1.6667
56.5615	7.7778	1.4699
56.5898	9.4444	1.6197
56.6180	9.7222	1.6434
56.6463	10.0000	1.6667
56.6746	11.3889	1.7786
56.7028	8.3333	1.5215
56.7311	11.1111	1.7568
56.7594	6.1111	1.3029
56.7876	8.3333	1.5215
56.8159	8.6111	1.5466
56.8442	9.7222	1.6434
56.8724	11.9444	1.8215
56.9007	10.0000	1.6667
56.9290	7.5000	1.4434
56.9572	9.7222	1.6434
56.9855	7.7778	1.4699
57.0138	6.3889	1.3322
57.0420	8.0556	1.4959
57.0703	8.0556	1.4959
57.0986	10.8333	1.7347
57.1268	9.4444	1.6197
57.1551	12.2222	1.8426
57.1833	9.7222	1.6434
57.2116	9.1667	1.5957
57.2399	9.1667	1.5957
57.2681	9.7222	1.6434
57.2964	11.3889	1.7786
57.3247	9.1667	1.5957
57.3529	10.2778	1.6897
57.3812	12.5000	1.8634
57.4095	12.7778	1.8840
57.4377	10.5556	1.7123
57.4660	13.3333	1.9245
57.4943	11.3889	1.7786
57.5225	15.2778	2.0601
57.5508	13.3333	1.9245
57.5791	18.3333	2.2567
57.6073	12.7778	1.8840
57.6356	16.9444	2.1695
57.6639	17.2222	2.1872
57.6921	20.5556	2.3895
57.7204	25.2778	2.6498
57.7487	21.3889	2.4375
57.7769	27.2222	2.7499
57.8052	34.1667	3.0807
57.8335	36.6667	3.1914
57.8617	40.0000	3.3333
57.8900	48.8889	3.6851
57.9183	56.6667	3.9675
57.9465	51.3889	3.7782
57.9748	62.7778	4.1759
58.0030	50.8333	3.7577
58.0313	41.9444	3.4134
58.0596	43.8889	3.4916
58.0878	34.1667	3.0807
58.1161	36.9444	3.2035
58.1444	28.3333	2.8054
58.1726	22.7778	2.5154
58.2009	18.0556	2.2395
58.2292	13.8889	1.9642
58.2574	15.5556	2.0787
58.2857	12.2222	1.8426
58.3140	15.2778	2.0601
58.3422	14.4444	2.0031
58.3705	11.6667	1.8002
58.3988	15.0000	2.0412
58.4270	10.8333	1.7347
58.4553	10.0000	1.6667
58.4836	10.0000	1.6667
58.5118	7.2222	1.4164
58.5401	11.3889	1.7786
58.5684	9.7222	1.6434
58.5966	10.0000	1.6667
58.6249	10.8333	1.7347
58.6532	7.7778	1.4699
58.6814	11.1111	1.7568
58.7097	10.8333	1.7347
58.7380	8.0556	1.4959
58.7662	11.1111	1.7568
58.7945	7.7778	1.4699
58.8227	8.0556	1.4959
58.8510	9.1667	1.5957
58.8793	11.6667	1.8002
58.9075	9.1667	1.5957
58.9358	11.6667	1.8002
58.9641	10.2778	1.6897
58.9923	9.4444	1.6197
59.0206	10.8333	1.7347
59.0489	7.5000	1.4434
59.0771	10.0000	1.6667
59.1054	11.3889	1.7786
59.1337	10.0000	1.6667
59.1619	8.8889	1.5713
59.1902	9.7222	1.6434
59.2185	9.1667	1.5957
59.2467	9.7222	1.6434
59.2750	7.5000	1.4434
59.3033	9.1667	1.5957
59.3315	10.2778	1.6897
59.3598	11.3889	1.7786
59.3881	9.7222	1.6434
59.4163	9.4444	1.6197
59.4446	10.2778	1.6897
59.4729	9.4444	1.6197
59.5011	10.5556	1.7123
59.5294	10.2778	1.6897
59.5577	11.9444	1.8215
59.5859	9.4444	1.6197
59.6142	11.1111	1.7568
59.6425	9.4444	1.6197
59.6707	9.4444	1.6197
59.6990	10.8333	1.7347
59.7272	15.0000	2.0412
59.7555	10.2778	1.6897
59.7838	8.8889	1.5713
59.8120	11.6667	1.8002
59.8403	10.0000	1.6667
59.8686	10.8333	1.7347
59.8968	11.6667	1.8002
59.9251	10.8333	1.7347
59.9534	8.3333	1.5215
59.9816	11.3889	1.7786
60.0099	9.1667	1.5957
60.0382	11.3889	1.7786
60.0664	9.1667	1.5957
60.0947	13.3333	1.9245
60.1230	11.1111	1.7568
60.1512	11.6667	1.8002
60.1795	11.3889	1.7786
60.2078	7.7778	1.4699
60.2360	10.0000	1.6667
60.2643	8.8889	1.5713
60.2926	7.7778	1.4699
60.3208	9.7222	1.6434
60.3491	12.2222	1.8426
60.3774	11.6667	1.8002
60.4056	12.2222	1.8426
60.4339	9.1667	1.5957
60.4622	6.9444	1.3889
60.4904	12.2222	1.8426
60.5187	8.8889	1.5713
60.5469	9.4444	1.6197
60.5752	11.3889	1.7786
60.6035	11.3889	1.7786
60.6317	8.6111	1.5466
60.6600	8.8889	1.5713
60.6883	10.8333	1.7347
60.7165	8.3333	1.5215
60.7448	10.2778	1.6897
60.7731	10.0000	1.6667
60.8013	8.3333	1.5215
60.8296	10.8333	1.7347
60.8579	10.8333	1.7347
60.8861	10.0000	1.6667
60.9144	10.0000	1.6667
60.9427	8.6111	1.5466
60.9709	8.6111	1.5466
60.9992	9.7222	1.6434
61.0275	10.0000	1.6667
61.0557	7.5000	1.4434
61.0840	12.5000	1.8634
61.1123	9.7222	1.6434
61.1405	10.2778	1.6897
61.1688	10.2778	1.6897
61.1971	8.0556	1.4959
61.2253	15.0000	2.0412
61.2536	9.4444	1.6197
61.2819	10.2778	1.6897
61.3101	11.1111	1.7568
61.3384	9.7222	1.6434
61.3667	8.0556	1.4959
61.3949	6.6667	1.3608
61.4232	12.5000	1.8634
61.4514	10.5556	1.7123
61.4797	11.1111	1.7568
61.5080	11.1111	1.7568
61.5362	10.5556	1.7123
61.5645	7.5000	1.3693
61.5928	9.7500	1.5612
61.6210	13.2500	1.8200
61.6493	12.2500	1.7500
61.6776	8.5000	1.4577
61.7058	10.0000	1.5811
61.7341	7.2500	1.3463
61.7624	7.7500	1.3919
61.7906	10.0000	1.5811
61.8189	8.2500	1.4361
61.8472	9.2500	1.5207
61.8754	8.7500	1.4790
61.9037	9.7500	1.5612
61.9320	8.0000	1.4142
61.9602	8.2500	1.4361
61.9885	7.7500	1.3919
62.0168	9.0000	1.5000
62.0450	10.2500	1.6008
62.0733	9.2500	1.5207
62.1016	9.5000	1.5411
62.1298	10.7500	1.6394
62.1581	10.7500	1.6394
62.1864	9.0000	1.5000
62.2146	7.5000	1.3693
62.2429	8.7500	1.4790
62.2711	10.7500	1.6394
62.2994	7.5000	1.3693
62.3277	9.0000	1.5000
62.3559	14.7500	1.9203
62.3842	12.5000	1.7678
62.4125	6.5000	1.2748
62.4407	7.7500	1.3919
62.4690	8.5000	1.4577
62.4973	10.5000	1.6202
62.5255	8.5000	1.4577
62.5538	11.0000	1.6583
62.5821	10.0000	1.5811
62.6103	8.7500	1.4790
62.6386	10.7500	1.6394
62.6669	10.5000	1.6202
62.6951	10.0000	1.5811
62.7234	11.0000	1.6583
62.7517	12.5000	1.7678
62.7799	7.7500	1.3919
62.8082	9.0000	1.5000
62.8365	10.5000	1.6202
62.8647	7.0000	1.3229
62.8930	10.5000	1.6202
62.9213	11.5000	1.6956
62.9495	9.5000	1.5411
62.9778	7.2500	1.3463
63.0061	9.5000	1.5411
63.0343	13.5000	1.8371
63.0626	12.0000	1.7321
63.0908	10.7500	1.6394
63.1191	12.0000	1.7321
63.1474	12.2500	1.7500
63.1756	9.2500	1.5207
63.2039	6.5000	1.2748
63.2322	10.5000	1.6202
63.2604	8.5000	1.4577
63.2887	9.5000	1.5411
63.3170	9.5000	1.5411
63.3452	7.5000	1.3693
63.3735	8.5000	1.4577
63.4018	8.7500	1.4790
63.4300	10.5000	1.6202
63.4583	11.2500	1.6771
63.4866	9.5000	1.5411
63.5148	10.0000	1.5811
63.5431	5.7500	1.1990
63.5714	7.5000	1.3693
63.5996	12.0000	1.7321
63.6279	11.2500	1.6771
63.6562	10.2500	1.6008
63.6844	13.2500	1.8200
63.7127	11.0000	1.6583
63.7410	13.2500	1.8200
63.7692	9.7500	1.5612
63.7975	7.2500	1.3463
63.8258	11.7500	1.7139
63.8540	12.2500	1.7500
63.8823	7.5000	1.3693
63.9106	9.5000	1.5411
63.9388	9.7500	1.5612
63.9671	10.5000	1.6202
63.9953	8.5000	1.4577
64.0236	9.7500	1.5612
64.0519	9.0000	1.5000
64.0801	9.5000	1.5411
64.1084	10.2500	1.6008
64.1367	9.7500	1.5612
64.1649	11.2500	1.6771
64.1932	11.2500	1.6771
64.2215	12.1429	1.7003
64.2497	11.1905	1.6323
64.2780	8.8095	1.4483
64.3063	12.6190	1.7334
64.3345	12.3810	1.7169
64.3628	12.3810	1.7169
64.3911	10.2381	1.5613
64.4193	10.0000	1.5430
64.4476	10.7143	1.5972
64.4759	10.4762	1.5793
64.5041	7.1429	1.3041
64.5324	10.4762	1.5793
64.5607	12.6190	1.7334
64.5889	9.7619	1.5246
64.6172	8.5714	1.4286
64.6455	10.9524	1.6148
64.6737	9.2857	1.4869
64.7020	8.3333	1.4086
64.7303	9.0476	1.4677
64.7585	13.0952	1.7658
64.7868	12.1429	1.7003
64.8150	11.1905	1.6323
64.8433	9.0476	1.4677
64.8716	12.3810	1.7169
64.8998	9.7619	1.5246
64.9281	11.6667	1.6667
64.9564	10.9524	1.6148
64.9846	8.5714	1.4286
65.0129	8.5714	1.4286
65.0412	10.0000	1.5430
65.0694	10.2381	1.5613
65.0977	12.1429	1.7003
65.1260	10.2381	1.5613
65.1542	9.0476	1.4677
65.1825	11.6667	1.6667
65.2108	11.9048	1.6836
65.2390	10.9524	1.6148
65.2673	12.6190	1.7334
65.2956	9.2857	1.4869
65.3238	11.6667	1.6667
65.3521	14.2857	1.8443
65.3804	12.1429	1.7003
65.4086	8.8636	1.4193
65.4369	6.3636	1.2026
65.4652	10.2273	1.5246
65.4934	10.4545	1.5414
65.5217	12.2727	1.6701
65.5500	8.8636	1.4193
65.5782	9.5455	1.4729
65.6065	11.1364	1.5909
65.6348	9.3182	1.4553
65.6630	12.0455	1.6546
65.6913	10.0000	1.5076
65.7195	11.5909	1.6231
65.7478	8.8636	1.4193
65.7761	9.3182	1.4553
65.8043	10.2273	1.5246
65.8326	10.4545	1.5414
65.8609	9.3182	1.4553
65.8891	13.6364	1.7604
65.9174	12.7273	1.7008
65.9457	12.9545	1.7159
65.9739	10.9091	1.5746
66.0022	9.7727	1.4903
66.0305	8.8636	1.4193
66.0587	11.8182	1.6389
66.0870	11.1364	1.5909
66.1153	11.1364	1.5909
66.1435	9.5455	1.4729
66.1718	11.5909	1.6231
66.2001	8.4091	1.3824
66.2283	11.8182	1.6389
66.2566	8.1818	1.3636
66.2849	8.6364	1.4010
66.3131	11.8182	1.6389
66.3414	8.6364	1.4010
66.3697	11.8182	1.6389
66.3979	11.3636	1.6071
66.4262	10.6818	1.5581
66.4545	12.0455	1.6546
66.4827	9.3182	1.4553
66.5110	12.0455	1.6546
66.5392	14.3182	1.8039
66.5675	10.4545	1.5414
66.5958	12.9545	1.7159
66.6240	13.4091	1.7457
66.6523	8.6364	1.4010
66.6806	12.9545	1.7159
66.7088	15.0000	1.8464
66.7371	12.9545	1.7159
66.7654	14.7727	1.8323
66.7936	15.4545	1.8741
66.8219	11.3636	1.6071
66.8502	13.6364	1.7604
66.8784	11.8182	1.6389
66.9067	13.4091	1.7457
66.9350	13.1818	1.7309
66.9632	10.2273	1.5246
66.9915	9.3182	1.4553
67.0198	12.7273	1.7008
67.0480	12.7273	1.7008
67.0763	12.5000	1.6855
67.1046	12.9545	1.7159
67.1328	12.5000	1.6855
67.1611	11.5909	1.6231
67.1894	13.4091	1.7457
67.2176	13.6364	1.7604
67.2459	9.5455	1.4729
67.2742	11.3636	1.6071
67.3024	10.9091	1.5746
67.3307	12.5000	1.6855
67.3589	14.0909	1.7895
67.3872	9.7727	1.4903
67.4155	12.2727	1.6701
67.4437	11.1364	1.5909
67.4720	11.1364	1.5909
67.5003	11.8182	1.6389
67.5285	11.8182	1.6389
67.5568	12.5000	1.6855
67.5851	9.0909	1.4374
67.6133	13.4091	1.7457
67.6416	10.6818	1.5581
67.6699	8.8636	1.4193
67.6981	10.4545	1.5414
67.7264	10.9091	1.5746
67.7547	8.8636	1.4193
67.7829	10.4545	1.5414
67.8112	11.1364	1.5909
67.8395	11.7391	1.5975
67.8677	14.3478	1.7661
67.8960	11.0870	1.5525
67.9243	11.9565	1.6122
67.9525	13.4783	1.7117
67.9808	12.8261	1.6698
68.0091	13.0435	1.6839
68.0373	10.4348	1.5061
68.0656	11.9565	1.6122
68.0939	11.0870	1.5525
68.1221	13.9130	1.7391
68.1504	12.1739	1.6268
68.1787	11.3043	1.5676
68.2069	11.3043	1.5676
68.2352	11.7391	1.5975
68.2634	12.3913	1.6413
68.2917	9.7826	1.4583
68.3200	10.8696	1.5372
68.3482	10.8696	1.5372
68.3765	10.8696	1.5372
68.4048	12.3913	1.6413
68.4330	12.1739	1.6268
68.4613	10.6522	1.5217
68.4896	11.3043	1.5676
68.5178	13.9130	1.7391
68.5461	11.5217	1.5826
68.5744	10.2174	1.4904
68.6026	12.8261	1.6698
68.6309	13.4783	1.7117
68.6592	11.9565	1.6122
68.6874	8.4783	1.3576
68.7157	11.3043	1.5676
68.7440	14.3478	1.7661
68.7722	12.6087	1.6556
68.8005	12.6087	1.6556
68.8288	9.5652	1.4420
68.8570	10.2174	1.4904
68.8853	13.0435	1.6839
68.9136	9.4000	1.3711
68.9418	8.6000	1.3115
68.9701	11.8000	1.5362
68.9984	10.0000	1.4142
69.0266	10.2000	1.4283
69.0549	10.8000	1.4697
69.0831	12.0000	1.5492
69.1114	10.8000	1.4697
69.1397	10.0000	1.4142
69.1679	10.6000	1.4560
69.1962	10.6000	1.4560
69.2245	10.8000	1.4697
69.2527	15.0000	1.7321
69.2810	11.8000	1.5362
69.3093	13.4000	1.6371
69.3375	11.0000	1.4832
69.3658	13.8000	1.6613
69.3941	11.0000	1.4832
69.4223	9.0000	1.3416
69.4506	12.6000	1.5875
69.4789	11.6000	1.5232
69.5071	12.0000	1.5492
69.5354	8.8000	1.3266
69.5637	11.2000	1.4967
69.5919	11.4000	1.5100
69.6202	12.2000	1.5620
69.6485	11.0000	1.4832
69.6767	12.6000	1.5875
69.7050	11.2000	1.4967
69.7333	12.0000	1.5492
69.7615	10.4000	1.4422
69.7898	13.8000	1.6613
69.8181	12.0000	1.5492
69.8463	11.0000	1.4832
69.8746	13.2000	1.6248
69.9028	11.6000	1.5232
69.9311	13.2000	1.6248
69.9594	13.0000	1.6125
69.9876	12.4000	1.5748
70.0159	12.0000	1.5492
70.0442	11.4000	1.5100
70.0724	13.8000	1.6613
70.1007	14.8000	1.7205
70.1290	13.0000	1.6125
70.1572	12.2000	1.5620
70.1855	12.0000	1.5492
70.2138	11.8000	1.5362
70.2420	13.4000	1.6371
70.2703	11.4000	1.5100
70.2986	13.4000	1.6371
70.3268	15.0000	1.6984
70.3551	13.6538	1.6204
70.3834	12.6923	1.5623
70.4116	9.4231	1.3462
70.4399	10.9615	1.4519
70.4682	12.8846	1.5741
70.4964	15.1923	1.7093
70.5247	9.6154	1.3598
70.5530	10.0000	1.3868
70.5812	12.5000	1.5504
70.6095	14.6154	1.6765
70.6378	12.8846	1.5741
70.6660	11.5385	1.4896
70.6943	11.7308	1.5020
70.7226	10.9615	1.4519
70.7508	12.6923	1.5623
70.7791	12.3077	1.5385
70.8073	13.4615	1.6090
70.8356	11.3462	1.4771
70.8639	15.1923	1.7093
70.8921	13.8462	1.6318
70.9204	12.8846	1.5741
70.9487	12.5000	1.5504
70.9769	10.9615	1.4519
71.0052	11.3462	1.4771
71.0335	13.6538	1.6204
71.0617	10.1923	1.4000
71.0900	12.5000	1.5504
71.1183	12.8846	1.5741
71.1465	12.1154	1.5264
71.1748	11.5385	1.4896
71.2031	9.4231	1.3462
71.2313	15.5556	1.6973
71.2596	13.5185	1.5822
71.2879	14.8148	1.6563
71.3161	12.2222	1.5045
71.3444	14.2593	1.6250
71.3727	14.0741	1.6144
71.4009	12.4074	1.5158
71.4292	12.2222	1.5045
71.4575	12.5926	1.5271
71.4857	13.5185	1.5822
71.5140	10.1852	1.3734
71.5423	13.5185	1.5822
71.5705	14.6296	1.6460
71.5988	12.5926	1.5271
71.6270	13.7037	1.5930
71.6553	9.6296	1.3354
71.6836	14.6296	1.6460
71.7118	13.5185	1.5822
71.7401	15.5556	1.6973
71.7684	11.2963	1.4463
71.7966	16.4815	1.7470
71.8249	12.2222	1.5045
71.8532	12.2222	1.5045
71.8814	17.2222	1.7859
71.9097	15.7407	1.7073
71.9380	14.2593	1.6250
71.9662	15.9259	1.7173
71.9945	17.7778	1.8144
72.0228	15.7407	1.7073
72.0510	16.4815	1.7470
72.0793	20.0000	1.9245
72.1076	16.1111	1.7273
72.1358	16.6667	1.7568
72.1641	20.0000	1.9245
72.1924	18.3333	1.8426
72.2206	24.4444	2.1276
72.2489	18.5185	1.8519
72.2772	20.3704	1.9422
72.3054	21.1111	1.9772
72.3337	20.3704	1.9422
72.3620	23.1481	2.0704
72.3902	23.7037	2.0951
72.4185	23.5185	2.0869
72.4468	33.8889	2.5051
72.4750	27.9630	2.2756
72.5033	39.4444	2.7027
72.5315	47.9630	2.9803
72.5598	53.8889	3.1590
72.5881	68.1481	3.5525
72.6163	81.8519	3.8933
72.6446	92.5926	4.1409
72.6729	101.8519	4.3430
72.7011	100.3704	4.3113
72.7294	95.7407	4.2107
72.7577	101.1111	4.3272
72.7859	83.7037	3.9371
72.8142	82.2222	3.9021
72.8425	71.8519	3.6477
72.8707	74.8148	3.7222
72.8990	69.0741	3.5765
72.9273	66.2963	3.5039
72.9555	55.1852	3.1968
72.9838	46.2963	2.9280
73.0121	40.0000	2.7217
73.0403	32.9630	2.4707
73.0686	31.4815	2.4145
73.0969	25.3704	2.1675
73.1251	27.0370	2.2376
73.1534	22.5926	2.0454
73.1817	21.1111	1.9772
73.2099	20.3704	1.9422
73.2382	20.1852	1.9334
73.2665	15.9259	1.7173
73.2947	17.4074	1.7954
73.3230	16.2963	1.7372
73.3512	13.7037	1.5930
73.3795	16.8519	1.7666
73.4078	14.4444	1.6355
73.4360	14.4444	1.6355
73.4643	17.7778	1.8144
73.4926	16.8519	1.7666
73.5208	14.0741	1.6144
73.5491	15.9259	1.7173
73.5774	9.6296	1.3354
73.6056	15.8929	1.6846
73.6339	10.3571	1.3600
73.6622	12.8571	1.5152
73.6904	12.8571	1.5152
73.7187	12.8571	1.5152
73.7470	11.6071	1.4397
73.7752	14.1071	1.5872
73.8035	13.3929	1.5465
73.8318	12.6786	1.5047
73.8600	12.3214	1.4833
73.8883	12.6786	1.5047
73.9166	11.6071	1.4397
73.9448	13.2143	1.5361
73.9731	10.7143	1.3832
74.0014	12.3214	1.4833
74.0296	13.2143	1.5361
74.0579	11.0714	1.4061
74.0862	12.6786	1.5047
74.1144	13.9286	1.5771
74.1427	14.2857	1.5972
74.1709	11.7857	1.4507
74.1992	11.9643	1.4617
74.2275	11.4286	1.4286
74.2557	14.1071	1.5872
74.2840	12.5000	1.4940
74.3123	12.6786	1.5047
74.3405	11.9643	1.4617
74.3688	10.7143	1.3832
74.3971	12.8571	1.5152
74.4253	10.1786	1.3482
74.4536	11.4286	1.4286
74.4819	13.2143	1.5361
74.5101	15.3571	1.6560
74.5384	13.0357	1.5257
74.5667	11.0714	1.4061
74.5949	11.6071	1.4397
74.6232	11.7857	1.4507
74.6515	10.1786	1.3482
74.6797	11.6071	1.4397
74.7080	12.3214	1.4833
74.7363	11.7857	1.4507
74.7645	10.3571	1.3600
74.7928	13.5714	1.5567
74.8211	11.4286	1.4286
74.8493	14.2857	1.5972
74.8776	13.7500	1.5670
74.9059	13.2143	1.5361
74.9341	10.3571	1.3600
74.9624	12.5000	1.4940
74.9907	13.2143	1.5361
75.0189	8.9286	1.2627
75.0472	13.0357	1.5257
75.0754	11.0714	1.4061
75.1037	12.3214	1.4833
75.1320	12.8571	1.5152
75.1602	13.3929	1.5465
75.1885	12.3214	1.4833
75.2168	10.1786	1.3482
75.2450	9.1667	1.2360
75.2733	13.0000	1.4720
75.3016	15.5000	1.6073
75.3298	10.5000	1.3229
75.3581	11.5000	1.3844
75.3864	10.1667	1.3017
75.4146	9.1667	1.2360
75.4429	11.1667	1.3642
75.4712	9.6667	1.2693
75.4994	13.5000	1.5000
75.5277	13.6667	1.5092
75.5560	11.0000	1.3540
75.5842	10.3333	1.3123
75.6125	12.3333	1.4337
75.6408	11.0000	1.3540
75.6690	13.1667	1.4814
75.6973	10.8333	1.3437
75.7256	10.0000	1.2910
75.7538	11.8333	1.4044
75.7821	10.6667	1.3333
75.8104	9.6667	1.2693
75.8386	11.5000	1.3844
75.8669	11.1667	1.3642
75.8951	10.1667	1.3017
75.9234	10.6452	1.3103
75.9517	8.8710	1.1962
75.9799	10.0000	1.2700
76.0082	15.1613	1.5638
76.0365	13.3871	1.4694
76.0647	10.6452	1.3103
76.0930	7.7419	1.1175
76.1213	8.3871	1.1631
76.1495	12.2581	1.4061
76.1778	10.6452	1.3103
76.2061	11.7742	1.3781
76.2343	12.7419	1.4336
76.2626	11.2903	1.3495
76.2909	13.0645	1.4516
76.3191	9.8387	1.2597
76.3474	11.7742	1.3781
76.3757	14.0323	1.5044
76.4039	10.3226	1.2903
76.4322	9.3548	1.2284
76.4605	12.0968	1.3968
76.4887	12.2581	1.4061
76.5170	12.4194	1.4153
76.5453	10.3226	1.2903
76.5735	10.3226	1.2903
76.6018	8.5484	1.1742
76.6301	12.7419	1.4336
76.6583	13.8710	1.4957
76.6866	12.0968	1.3968
76.7149	11.2903	1.3495
76.7431	10.9677	1.3300
76.7714	11.1290	1.3398
76.7996	10.4839	1.3004
76.8279	10.9677	1.3300
76.8562	11.7742	1.3781
76.8844	10.0000	1.2700
76.9127	12.0968	1.3968
76.9410	9.0323	1.2070
76.9692	10.3226	1.2903
76.9975	12.9032	1.4426
77.0258	11.1290	1.3398
77.0540	10.1613	1.2802
77.0823	8.7097	1.1852
77.1106	12.0968	1.3968
77.1388	10.8065	1.3202
77.1671	11.2903	1.3495
77.1954	10.3226	1.2903
77.2236	11.9355	1.3875
77.2519	10.3226	1.2903
77.2802	9.0323	1.2070
77.3084	11.2903	1.3495
77.3367	13.3871	1.4694
77.3650	12.4194	1.4153
77.3932	12.9032	1.4426
77.4215	11.1290	1.3398
77.4498	11.6129	1.3686
77.4780	9.5161	1.2389
77.5063	10.3226	1.2903
77.5346	8.7097	1.1852
77.5628	9.8387	1.2597
77.5911	10.0000	1.2700
77.6193	11.2903	1.3495
77.6476	11.4516	1.3591
77.6759	12.5000	1.3975
77.7041	10.6250	1.2885
77.7324	11.4063	1.3350
77.7607	9.8438	1.2402
77.7889	10.3125	1.2694
77.8172	14.0625	1.4823
77.8455	9.5313	1.2204
77.8737	9.8438	1.2402
77.9020	10.0000	1.2500
77.9303	10.4688	1.2790
77.9585	10.9375	1.3073
77.9868	9.2188	1.2002
78.0151	11.7188	1.3532
78.0433	11.0938	1.3166
78.0716	8.7500	1.1693
78.0999	13.5938	1.4574
78.1281	12.6563	1.4063
78.1564	11.0938	1.3166
78.1847	11.7188	1.3532
78.2129	9.5313	1.2204
78.2412	14.5313	1.5068
78.2695	11.4063	1.3350
78.2977	10.3125	1.2694
78.3260	10.7813	1.2979
78.3543	11.0938	1.3166
78.3825	10.9375	1.3073
78.4108	10.9375	1.3073
78.4390	11.2500	1.3258
78.4673	7.8125	1.1049
78.4956	10.3125	1.2694
78.5238	12.1875	1.3800
78.5521	10.4688	1.2790
78.5804	10.0000	1.2500
78.6086	11.2500	1.3258
78.6369	12.8125	1.4149
78.6652	11.0938	1.3166
78.6934	10.9375	1.3073
78.7217	10.9375	1.3073
78.7500	11.8750	1.3622
78.7782	11.5625	1.3441
78.8065	10.4688	1.2790
78.8348	13.2813	1.4406
78.8630	11.0938	1.3166
78.8913	10.3125	1.2694
78.9196	12.3438	1.3888
78.9478	11.4063	1.3350
78.9761	11.0938	1.3166
79.0044	12.6563	1.4063
79.0326	10.1563	1.2597
79.0609	10.9375	1.3073
79.0892	10.0000	1.2500
79.1174	10.3125	1.2694
79.1457	9.6875	1.2303
79.1740	10.7813	1.2979
79.2022	11.4063	1.3350
79.2305	12.5000	1.3975
79.2588	12.6563	1.4063
79.2870	10.3125	1.2694
79.3153	11.4063	1.3350
79.3435	13.7500	1.4658
79.3718	13.9063	1.4741
79.4001	13.1250	1.4321
79.4283	12.5000	1.3975
79.4566	11.7188	1.3532
79.4849	12.1875	1.3800
79.5131	14.3750	1.4987
79.5414	12.0313	1.3711
79.5697	12.1875	1.3800
79.5979	11.8750	1.3622
79.6262	10.0000	1.2500
79.6545	10.6250	1.2885
79.6827	11.8750	1.3622
79.7110	11.5625	1.3441
79.7393	10.7813	1.2979
79.7675	12.1875	1.3800
79.7958	12.9688	1.4235
79.8241	10.3125	1.2694
79.8523	10.0000	1.2500
79.8806	11.5625	1.3441
79.9089	12.6563	1.4063
79.9371	13.7500	1.4658
79.9654	13.4375	1.4490
79.9937	12.5000	1.3975
80.0219	11.7188	1.3532
80.0502	11.0938	1.3166
80.0785	10.4688	1.2790
80.1067	13.4375	1.4490
80.1350	11.8750	1.3622
80.1632	10.7353	1.2565
80.1915	11.6176	1.3071
80.2198	10.1471	1.2216
80.2480	12.2059	1.3398
80.2763	11.0294	1.2736
80.3046	11.4706	1.2988
80.3328	8.6765	1.1296
80.3611	9.8529	1.2037
80.3894	12.2059	1.3398
80.4176	13.2353	1.3951
80.4459	8.6765	1.1296
80.4742	10.1471	1.2216
80.5024	9.2647	1.1672
80.5307	9.2647	1.1672
80.5590	11.1765	1.2820
80.5872	10.2941	1.2304
80.6155	11.8571	1.3015
80.6438	11.5714	1.2857
80.6720	11.0000	1.2536
80.7003	11.4286	1.2778
80.7286	10.4286	1.2206
80.7568	10.5714	1.2289
80.7851	11.2857	1.2697
80.8134	12.2857	1.3248
80.8416	10.7143	1.2372
80.8699	10.5714	1.2289
80.8982	11.4286	1.2778
80.9264	10.8571	1.2454
80.9547	9.0000	1.1339
80.9830	10.8571	1.2454
81.0112	9.8571	1.1867
81.0395	10.8571	1.2454
81.0677	12.0000	1.3093
81.0960	9.7143	1.1780
81.1243	11.1429	1.2617
81.1525	10.0000	1.1952
81.1808	11.2857	1.2697
81.2091	10.4286	1.2206
81.2373	12.0000	1.3093
81.2656	13.7143	1.3997
81.2939	11.2857	1.2697
81.3221	14.1429	1.4214
81.3504	9.4286	1.1606
81.3787	10.2857	1.2122
81.4069	8.8571	1.1249
81.4352	9.0000	1.1339
81.4635	13.2857	1.3777
81.4917	9.0000	1.1339
81.5200	12.7143	1.3477
81.5483	13.4286	1.3851
81.5765	12.2857	1.3248
81.6048	9.4286	1.1606
81.6331	10.8571	1.2454
81.6613	12.1429	1.3171
81.6896	8.4286	1.0973
81.7179	10.8571	1.2454
81.7461	10.0000	1.1952
81.7744	10.7143	1.2372
81.8027	11.2857	1.2697
81.8309	9.1429	1.1429
81.8592	10.0000	1.1952
81.8874	11.1429	1.2617
81.9157	8.7143	1.1157
81.9440	9.5714	1.1693
81.9722	10.8571	1.2454
82.0005	11.1429	1.2617
82.0288	9.5714	1.1693
82.0570	11.2857	1.2697
82.0853	13.1429	1.3702
82.1136	8.8571	1.1249
82.1418	11.7143	1.2936
82.1701	13.0000	1.3628
82.1984	10.7143	1.2372
82.2266	12.7143	1.3477
82.2549	10.2857	1.2122
82.2832	10.2857	1.2122
82.3114	11.8571	1.3015
82.3397	13.8571	1.4070
82.3680	11.5714	1.2857
82.3962	10.0000	1.1952
82.4245	10.5714	1.2289
82.4528	9.2857	1.1518
82.4810	9.4286	1.1606
82.5093	9.2857	1.1518
82.5376	11.4286	1.2778
82.5658	11.1429	1.2617
82.5941	12.5000	1.3176
82.6224	12.5000	1.3176
82.6506	14.7222	1.4299
82.6789	10.6944	1.2187
82.7071	9.8611	1.1703
82.7354	10.6944	1.2187
82.7637	10.6944	1.2187
82.7919	11.3889	1.2577
82.8202	13.4722	1.3679
82.8485	8.0556	1.0577
82.8767	12.6389	1.3249
82.9050	8.0556	1.0577
82.9333	10.9722	1.2345
82.9615	10.5556	1.2108
82.9898	10.1351	1.1703
83.0181	9.3243	1.1225
83.0463	9.7297	1.1467
83.0746	11.0811	1.2237
83.1029	10.0000	1.1625
83.1311	10.0000	1.1625
83.1594	11.8919	1.2677
83.1877	10.2703	1.1781
83.2159	9.4595	1.1306
83.2442	9.8649	1.1546
83.2725	11.6216	1.2532
83.3007	12.0270	1.2749
83.3290	9.8649	1.1546
83.3573	11.3514	1.2385
83.3855	9.1892	1.1144
83.4138	12.7027	1.3102
83.4421	12.4324	1.2962
83.4703	10.5405	1.1935
83.4986	10.6757	1.2011
83.5269	9.4595	1.1306
83.5551	11.2162	1.2311
83.5834	10.9459	1.2162
83.6116	12.0270	1.2749
83.6399	11.2162	1.2311
83.6682	12.7027	1.3102
83.6964	12.1622	1.2820
83.7247	13.2432	1.3378
83.7530	12.1622	1.2820
83.7812	12.2973	1.2891
83.8095	11.0811	1.2237
83.8378	10.2703	1.1781
83.8660	10.1351	1.1703
83.8943	11.0811	1.2237
83.9226	10.5405	1.1935
83.9508	12.2973	1.2891
83.9791	10.8108	1.2087
84.0074	10.9459	1.2162
84.0356	11.6216	1.2532
84.0639	10.5405	1.1935
84.0922	10.0000	1.1625
84.1204	12.0270	1.2749
84.1487	11.4865	1.2459
84.1770	12.0270	1.2749
84.2052	11.3514	1.2385
84.2335	10.1351	1.1703
84.2618	11.8919	1.2677
84.2900	11.4865	1.2459
84.3183	10.9459	1.2162
84.3466	10.6757	1.2011
84.3748	10.0000	1.1625
84.4031	9.1892	1.1144
84.4313	8.2432	1.0554
84.4596	11.0811	1.2237
84.4879	10.4054	1.1858
84.5161	12.5676	1.3032
84.5444	12.9730	1.3240
84.5727	10.4054	1.1858
84.6009	12.1622	1.2820
84.6292	10.4054	1.1858
84.6575	9.3243	1.1225
84.6857	12.5676	1.3032
84.7140	10.6757	1.2011
84.7423	9.5946	1.1387
84.7705	10.9459	1.2162
84.7988	11.2162	1.2311
84.8271	13.3784	1.3446
84.8553	13.3784	1.3446
84.8836	12.7027	1.3102
84.9119	10.1351	1.1703
84.9401	11.0811	1.2237
84.9684	11.6216	1.2532
84.9967	12.8378	1.3171
85.0249	10.8108	1.2087
85.0532	11.7568	1.2605
85.0815	10.8108	1.2087
85.1097	11.0811	1.2237
85.1380	10.6757	1.2011
85.1663	13.3784	1.3446
85.1945	11.4865	1.2459
85.2228	11.0811	1.2237
85.2511	12.0270	1.2749
85.2793	13.9189	1.3715
85.3076	11.6667	1.2230
85.3358	11.5385	1.2163
85.3641	13.0769	1.2948
85.3924	12.5641	1.2692
85.4206	11.2821	1.2027
85.4489	11.5385	1.2163
85.4772	13.0769	1.2948
85.5054	11.5385	1.2163
85.5337	12.1795	1.2496
85.5620	13.5897	1.3200
85.5902	13.2051	1.3011
85.6185	12.9487	1.2884
85.6468	12.8205	1.2821
85.6750	15.0000	1.3868
85.7033	14.6154	1.3689
85.7316	14.1026	1.3446
85.7598	12.1795	1.2496
85.7881	13.0769	1.2948
85.8164	13.9744	1.3385
85.8446	14.1026	1.3446
85.8729	16.0256	1.4334
85.9012	15.6410	1.4161
85.9294	15.0000	1.3868
85.9577	16.2821	1.4448
85.9860	15.5128	1.4103
86.0142	17.5641	1.5006
86.0425	16.0256	1.4334
86.0708	17.3077	1.4896
86.0990	18.2051	1.5277
86.1273	22.0513	1.6814
86.1555	23.5897	1.7391
86.1838	25.1282	1.7949
86.2121	29.6154	1.9485
86.2403	34.3590	2.0988
86.2686	34.2308	2.0949
86.2969	33.9744	2.0870
86.3251	33.0769	2.0593
86.3534	35.3846	2.1299
86.3817	31.9231	2.0230
86.4099	31.7949	2.0190
86.4382	29.4872	1.9443
86.4665	32.4359	2.0392
86.4947	26.6667	1.8490
86.5230	26.1538	1.8311
86.5513	29.8718	1.9570
86.5795	25.6410	1.8131
86.6078	26.6667	1.8490
86.6361	26.7949	1.8534
86.6643	24.2308	1.7625
86.6926	20.3846	1.6166
86.7209	21.5385	1.6617
86.7491	20.1282	1.6064
86.7774	16.1538	1.4391
86.8057	16.2821	1.4448
86.8339	15.5128	1.4103
86.8622	11.9231	1.2364
86.8905	11.9231	1.2364
86.9187	16.5385	1.4561
86.9470	12.0513	1.2430
86.9752	14.6154	1.3689
87.0035	13.4615	1.3137
87.0318	11.5385	1.2163
87.0600	11.1538	1.1958
87.0883	11.1538	1.1958
87.1166	11.5385	1.2163
87.1448	12.9487	1.2884
87.1731	10.7692	1.1750
87.2014	10.6410	1.1680
87.2296	11.4103	1.2095
87.2579	11.5385	1.2163
87.2862	12.6923	1.2756
87.3144	10.1282	1.1395
87.3427	12.8205	1.2821
87.3710	11.7949	1.2297
87.3992	10.5128	1.1609
87.4275	10.2564	1.1467
87.4558	12.4359	1.2627
87.4840	11.7949	1.2297
87.5123	11.5000	1.1990
87.5406	9.3750	1.0825
87.5688	9.6250	1.0969
87.5971	13.8750	1.3170
87.6254	11.3750	1.1924
87.6536	10.7500	1.1592
87.6819	13.7500	1.3110
87.7102	10.1250	1.1250
87.7384	10.3750	1.1388
87.7667	11.7500	1.2119
87.7950	13.3750	1.2930
87.8232	11.3750	1.1924
87.8515	9.8750	1.1110
87.8797	10.0000	1.1180
87.9080	14.2500	1.3346
87.9363	10.1250	1.1250
87.9645	10.1250	1.1250
87.9928	11.2500	1.1859
88.0211	13.0000	1.2748
88.0493	11.6250	1.2055
88.0776	12.8750	1.2686
88.1059	10.7500	1.1592
88.1341	9.7500	1.1040
88.1624	12.2500	1.2374
88.1907	12.6250	1.2562
88.2189	11.2500	1.1859
88.2472	9.7500	1.1040
88.2755	11.6250	1.2055
88.3037	13.1250	1.2809
88.3320	13.1250	1.2809
88.3603	9.1250	1.0680
88.3885	13.2500	1.2870
88.4168	10.6250	1.1524
88.4451	11.8750	1.2183
88.4733	10.6250	1.1524
88.5016	12.5000	1.2500
88.5299	10.3750	1.1388
88.5581	10.5000	1.1456
88.5864	9.7500	1.1040
88.6147	12.7500	1.2624
88.6429	13.5000	1.2990
88.6712	10.5000	1.1456
88.6994	12.2500	1.2374
88.7277	13.1250	1.2809
88.7560	11.6250	1.2055
88.7842	9.2500	1.0753
88.8125	12.7500	1.2624
88.8408	10.5000	1.1456
88.8690	13.0000	1.2748
88.8973	12.0000	1.2247
88.9256	10.6250	1.1524
88.9538	11.0000	1.1726
88.9821	10.1250	1.1250
89.0104	8.6250	1.0383
89.0386	10.8750	1.1659
89.0669	10.7500	1.1592
89.0952	10.6250	1.1524
89.1234	11.7500	1.2119
89.1517	9.8750	1.1110
89.1800	11.1250	1.1792
89.2082	11.5000	1.1990
89.2365	10.3750	1.1388
89.2648	13.6250	1.3050
89.2930	10.7500	1.1592
89.3213	11.1250	1.1792
89.3496	11.3750	1.1924
89.3778	12.5000	1.2500
89.4061	11.5000	1.1990
89.4344	11.8750	1.2183
89.4626	11.7500	1.2119
89.4909	12.2500	1.2374
89.5192	11.1250	1.1792
89.5474	10.5000	1.1456
89.5757	8.3750	1.0232
89.6039	11.3750	1.1924
89.6322	10.3750	1.1388
89.6605	9.8750	1.1110
89.6887	7.8750	0.9922
89.7170	8.6250	1.0383
89.7453	11.3750	1.1924
89.7735	12.5000	1.2500
89.8018	11.1250	1.1792
89.8301	11.6250	1.2055
89.8583	9.7500	1.1040
89.8866	11.7500	1.2119
89.9149	11.6250	1.2055
89.9431	9.1250	1.0680
89.9714	9.6250	1.0969
89.9997	11.7857	1.1845
90.0279	11.0714	1.1481
90.0562	11.3095	1.1603
90.0845	10.7143	1.1294
90.1127	10.7143	1.1294
90.1410	9.7619	1.0780
90.1693	10.5952	1.1231
90.1975	10.5952	1.1231
90.2258	9.7619	1.0780
90.2541	10.2381	1.1040
90.2823	12.5000	1.2199
90.3106	12.3810	1.2141
90.3389	12.7381	1.2314
90.3671	9.4048	1.0581
90.3954	12.1429	1.2023
90.4236	10.9524	1.1419
90.4519	10.7143	1.1294
90.4802	9.6429	1.0714
90.5084	11.0714	1.1481
90.5367	10.2381	1.1040
90.5650	12.2619	1.2082
90.5932	9.5238	1.0648
90.6215	9.4048	1.0581
90.6498	10.7143	1.1294
90.6780	9.6429	1.0714
90.7063	9.6429	1.0714
90.7346	10.7143	1.1294
90.7628	10.7143	1.1294
90.7911	11.3095	1.1603
90.8194	8.9286	1.0310
90.8476	14.4048	1.3095
90.8759	11.3095	1.1603
90.9042	10.9524	1.1419
90.9324	9.5238	1.0648
90.9607	11.1905	1.1542
90.9890	9.5238	1.0648
91.0172	11.6667	1.1785
91.0455	8.6905	1.0171
91.0738	10.0000	1.0911
91.1020	9.2857	1.0514
91.1303	10.7143	1.1294
91.1586	11.4286	1.1664
91.1868	12.0238	1.1964
91.2151	11.7857	1.1845
91.2433	9.5238	1.0648
91.2716	10.5952	1.1231
91.2999	11.7857	1.1845
91.3281	12.0238	1.1964
91.3564	14.8810	1.3310
91.3847	11.4286	1.1664
91.4129	11.7857	1.1845
91.4412	11.5476	1.1725
91.4695	9.8810	1.0846
91.4977	9.2857	1.0514
91.5260	13.2143	1.2542
91.5543	9.2857	1.0514
91.5825	10.9524	1.1419
91.6108	13.9286	1.2877
91.6391	10.5952	1.1231
91.6673	14.1667	1.2987
91.6956	12.0238	1.1964
91.7239	10.8333	1.1356
91.7521	10.9524	1.1419
91.7804	12.8571	1.2372
91.8087	11.0714	1.1481
91.8369	11.7857	1.1845
91.8652	10.8333	1.1356
91.8935	12.7381	1.2314
91.9217	11.5476	1.1725
91.9500	11.9048	1.1905
91.9783	10.9524	1.1419
92.0065	12.8571	1.2372
92.0348	11.0714	1.1481
92.0631	9.8810	1.0846
92.0913	11.3095	1.1603
92.1196	10.5952	1.1231
92.1478	13.3333	1.2599
92.1761	11.7857	1.1845
92.2044	11.4286	1.1664
92.2326	10.3571	1.1104
92.2609	11.3095	1.1603
92.2892	9.5238	1.0648
92.3174	11.3636	1.1364
92.3457	10.5682	1.0959
92.3740	10.9091	1.1134
92.4022	12.0455	1.1700
92.4305	11.7778	1.1440
92.4588	10.4444	1.0773
92.4870	10.6667	1.0887
92.5153	11.3333	1.1222
92.5436	11.1111	1.1111
92.5718	9.7778	1.0423
92.6001	9.5556	1.0304
92.6284	10.6667	1.0887
92.6566	10.2222	1.0657
92.6849	9.2222	1.0123
92.7132	11.6667	1.1386
92.7414	10.7778	1.0943
92.7697	11.6667	1.1386
92.7980	10.4444	1.0773
92.8262	11.4444	1.1277
92.8545	9.5556	1.0304
92.8828	10.8889	1.0999
92.9110	11.1111	1.1111
92.9393	11.5556	1.1331
92.9675	10.2222	1.0657
92.9958	12.3333	1.1706
93.0241	9.6667	1.0364
93.0523	11.5556	1.1331
93.0806	12.0000	1.1547
93.1089	10.6667	1.0887
93.1371	13.5556	1.2273
93.1654	11.3333	1.1222
93.1937	11.3333	1.1222
93.2219	10.1111	1.0599
93.2502	9.1111	1.0062
93.2785	10.3333	1.0715
93.3067	13.3333	1.2172
93.3350	11.7778	1.1440
93.3633	10.6667	1.0887
93.3915	10.6667	1.0887
93.4198	10.8889	1.0999
93.4481	12.0000	1.1547
93.4763	12.5556	1.1811
93.5046	12.7778	1.1915
93.5329	12.7778	1.1915
93.5611	11.1111	1.1111
93.5894	10.6667	1.0887
93.6177	10.1111	1.0599
93.6459	10.6667	1.0887
93.6742	12.1111	1.1600
93.7025	10.4444	1.0773
93.7307	10.8889	1.0999
93.7590	11.2222	1.1167
93.7872	9.8889	1.0482
93.8155	10.6667	1.0887
93.8438	9.3333	1.0184
93.8720	11.0000	1.1055
93.9003	10.3333	1.0715
93.9286	10.3333	1.0715
93.9568	10.5556	1.0830
93.9851	10.2222	1.0657
94.0134	12.4444	1.1759
94.0416	12.7778	1.1915
94.0699	12.0000	1.1547
94.0982	12.6667	1.1863
94.1264	10.6667	1.0887
94.1547	10.0000	1.0541
94.1830	11.4444	1.1277
94.2112	10.3333	1.0715
94.2395	11.2222	1.1167
94.2678	10.3333	1.0715
94.2960	11.2222	1.1167
94.3243	12.6667	1.1863
94.3526	11.5556	1.1331
94.3808	12.7778	1.1915
94.4091	12.6667	1.1863
94.4374	12.3333	1.1706
94.4656	10.7778	1.0943
94.4939	9.0000	1.0000
94.5222	11.8889	1.1493
94.5504	9.3333	1.0184
94.5787	11.3333	1.1222
94.6070	10.7778	1.0943
94.6352	8.3333	0.9623
94.6635	10.1111	1.0599
94.6917	12.3333	1.1706
94.7200	9.1111	1.0062
94.7483	13.0000	1.2019
94.7765	10.7778	1.0943
94.8048	11.8889	1.1493
94.8331	11.0000	1.1055
94.8613	11.4894	1.1056
94.8896	11.3830	1.1004
94.9179	11.0638	1.0849
94.9461	9.7872	1.0204
94.9744	9.6809	1.0148
95.0027	11.4894	1.1056
95.0309	12.1277	1.1359
95.0592	12.3404	1.1458
95.0875	11.0638	1.0849
95.1157	12.4468	1.1507
95.1440	11.7021	1.1158
95.1723	11.3830	1.1004
95.2005	12.0213	1.1309
95.2288	10.2128	1.0423
95.2571	14.3617	1.2361
95.2853	9.1489	0.9866
95.3136	10.9574	1.0797
95.3419	10.9574	1.0797
95.3701	13.9362	1.2176
95.3984	10.7447	1.0691
95.4267	12.6596	1.1605
95.4549	12.3404	1.1458
95.4832	11.4894	1.1056
95.5114	13.1915	1.1846
95.5397	12.5532	1.1556
95.5680	11.4894	1.1056
95.5962	9.7872	1.0204
95.6245	12.3404	1.1458
95.6528	13.4043	1.1941
95.6810	11.0638	1.0849
95.7093	11.8085	1.1208
95.7376	12.6596	1.1605
95.7658	13.0851	1.1798
95.7941	11.5957	1.1107
95.8224	12.1277	1.1359
95.8506	10.4255	1.0531
95.8789	11.9149	1.1259
95.9072	11.3830	1.1004
95.9354	11.2766	1.0953
95.9637	10.2128	1.0423
95.9920	11.4894	1.1056
96.0202	11.5957	1.1107
96.0485	13.1915	1.1846
96.0768	9.3617	0.9980
96.1050	11.2766	1.0953
96.1333	10.5319	1.0585
96.1616	11.7021	1.1158
96.1898	11.7021	1.1158
96.2181	11.5957	1.1107
96.2464	10.4255	1.0531
96.2746	10.8511	1.0744
96.3029	11.7021	1.1158
96.3312	10.7447	1.0691
96.3594	10.7447	1.0691
96.3877	10.0000	1.0314
96.4159	10.8511	1.0744
96.4442	10.5319	1.0585
96.4725	11.1702	1.0901
96.5007	11.7021	1.1158
96.5290	10.5319	1.0585
96.5573	12.4468	1.1507
96.5855	11.7021	1.1158
96.6138	11.9149	1.1259
96.6421	12.2340	1.1408
96.6703	9.8936	1.0259
96.6986	11.1702	1.0901
96.7269	9.7872	1.0204
96.7551	10.7447	1.0691
96.7834	10.4255	1.0531
96.8117	13.6170	1.2036
96.8399	12.4468	1.1507
96.8682	12.2340	1.1408
96.8965	11.3830	1.1004
96.9247	10.7447	1.0691
96.9530	11.2766	1.0953
96.9813	13.0851	1.1798
97.0095	12.0213	1.1309
97.0378	11.7021	1.1158
97.0661	14.1489	1.2269
97.0943	13.5106	1.1989
97.1226	11.2766	1.0953
97.1509	11.3830	1.1004
97.1791	11.5957	1.1107
97.2074	12.0213	1.1309
97.2356	12.9787	1.1750
97.2639	14.0426	1.2222
97.2922	13.2979	1.1894
97.3204	11.3830	1.1004
97.3487	9.5918	0.9893
97.3770	12.8571	1.1454
97.4052	9.6939	0.9946
97.4335	11.0204	1.0604
97.4618	11.5306	1.0847
97.4900	11.4286	1.0799
97.5183	13.2653	1.1634
97.5466	11.3265	1.0751
97.5748	10.7143	1.0456
97.6031	12.2449	1.1178
97.6314	11.1224	1.0653
97.6596	11.2245	1.0702
97.6879	12.8571	1.1454
97.7162	12.1429	1.1131
97.7444	11.7347	1.0943
97.7727	12.0408	1.1084
97.8010	12.7551	1.1409
97.8292	11.3265	1.0751
97.8575	9.6939	0.9946
97.8858	14.2857	1.2074
97.9140	12.2449	1.1178
97.9423	11.9388	1.1037
97.9706	12.2449	1.1178
97.9988	10.2041	1.0204
98.0271	14.0816	1.1987
98.0553	12.6531	1.1363
98.0836	13.3673	1.1679
98.1119	12.1429	1.1131
98.1401	9.8980	1.0050
98.1684	10.5102	1.0356
98.1967	12.3469	1.1224
98.2249	13.5714	1.1768
98.2532	14.4898	1.2160
98.2815	12.5510	1.1317
98.3097	13.0612	1.1545
98.3380	14.2857	1.2074
98.3663	12.5510	1.1317
98.3945	15.0000	1.2372
98.4228	10.5102	1.0356
98.4511	12.2449	1.1178
98.4793	15.2041	1.2456
98.5076	13.5714	1.1768
98.5359	13.4694	1.1724
98.5641	12.5510	1.1317
98.5924	13.1633	1.1590
98.6207	13.8776	1.1900
98.6489	12.5510	1.1317
98.6772	15.4082	1.2539
98.7055	15.4082	1.2539
98.7337	11.8367	1.0990
98.7620	11.8367	1.0990
98.7903	12.6531	1.1363
98.8185	14.0816	1.1987
98.8468	14.2857	1.2074
98.8751	13.0612	1.1545
98.9033	13.5714	1.1768
98.9316	14.5918	1.2202
98.9598	12.3469	1.1224
98.9881	15.4082	1.2539
99.0164	15.0000	1.2372
99.0446	15.4082	1.2539
99.0729	14.8980	1.2330
99.1012	15.8163	1.2704
99.1294	15.7143	1.2663
99.1577	16.8367	1.3107
99.1860	17.1429	1.3226
99.2142	16.6327	1.3028
99.2425	15.7143	1.2663
99.2708	16.5306	1.2988
99.2990	18.5714	1.3766
99.3273	18.7755	1.3841
99.3556	19.6939	1.4176
99.3838	15.9184	1.2745
99.4121	20.8163	1.4574
99.4404	20.4082	1.4431
99.4686	20.9184	1.4610
99.4969	22.4490	1.5135
99.5252	27.1429	1.6642
99.5534	28.5714	1.7075
99.5817	35.4082	1.9008
99.6100	38.8776	1.9918
99.6382	42.4490	2.0812
99.6665	47.3469	2.1980
99.6948	52.0408	2.3044
99.7230	50.4000	2.2450
99.7513	50.4000	2.2450
99.7795	48.3000	2.1977
99.8078	45.9000	2.1424
99.8361	50.1000	2.2383
99.8643	45.9000	2.1424
99.8926	42.2000	2.0543
99.9209	39.8000	1.9950
99.9491	38.2000	1.9545
99.9774	37.1000	1.9261
100.0057	39.4000	1.9849
100.0339	37.8000	1.9442
100.0622	40.2000	2.0050
100.0905	37.2000	1.9287
100.1187	35.4000	1.8815
100.1470	33.3000	1.8248
100.1753	29.4000	1.7146
100.2035	28.4000	1.6852
100.2318	25.1000	1.5843
100.2601	20.8000	1.4422
100.2883	23.4000	1.5297
100.3166	21.7000	1.4731
100.3449	20.5000	1.4318
100.3731	18.5000	1.3601
100.4014	16.8000	1.2961
100.4297	18.6000	1.3638
100.4579	16.8000	1.2961
100.4862	17.6000	1.3266
100.5145	16.3000	1.2767
100.5427	14.5000	1.2042
100.5710	13.8000	1.1747
100.5993	15.9000	1.2610
100.6275	15.0000	1.2247
100.6558	15.8000	1.2570
100.6840	14.8000	1.2166
100.7123	12.5000	1.1180
100.7406	15.1000	1.2288
100.7688	12.6000	1.1225
100.7971	12.1000	1.1000
100.8254	15.2000	1.2329
100.8536	13.8000	1.1747
100.8819	15.1000	1.2288
100.9102	12.7000	1.1269
100.9384	15.8000	1.2570
100.9667	13.6000	1.1662
100.9950	12.6000	1.1225
101.0232	12.3000	1.1091
101.0515	13.4000	1.1576
101.0798	13.7000	1.1705
101.1080	14.6000	1.2083
101.1363	14.0000	1.1832
101.1646	12.4000	1.1136
101.1928	13.4000	1.1576
101.2211	12.1000	1.1000
101.2494	12.3000	1.1091
101.2776	11.3000	1.0630
101.3059	12.4000	1.1136
101.3342	13.0000	1.1402
101.3624	14.0000	1.1832
101.3907	11.9000	1.0909
101.4190	13.5000	1.1619
101.4472	14.1000	1.1874
101.4755	13.4000	1.1576
101.5037	12.5000	1.1180
101.5320	13.9000	1.1790
101.5603	14.9000	1.2207
101.5885	13.1000	1.1446
101.6168	12.8000	1.1314
101.6451	13.0000	1.1402
101.6733	12.0000	1.0954
101.7016	14.2000	1.1916
101.7299	14.1000	1.1874
101.7581	12.7000	1.1269
101.7864	13.8000	1.1747
101.8147	13.3000	1.1533
101.8429	11.4000	1.0677
101.8712	11.9000	1.0909
101.8995	12.9000	1.1358
101.9277	14.0000	1.1832
101.9560	12.5000	1.1180
101.9843	13.3000	1.1533
102.0125	11.5000	1.0724
102.0408	14.6000	1.2083
102.0691	17.2000	1.3115
102.0973	12.4000	1.1136
102.1256	13.2000	1.1489
102.1539	11.3000	1.0630
102.1821	14.3000	1.1958
102.2104	12.8000	1.1314
102.2387	12.3000	1.1091
102.2669	14.0000	1.1832
102.2952	13.0000	1.1402
102.3234	13.2000	1.1489
102.3517	11.9000	1.0909
102.3800	13.2000	1.1489
102.4082	10.6000	1.0296
102.4365	11.9000	1.0909
102.4648	13.3000	1.1533
102.4930	13.2000	1.1489
102.5213	12.8000	1.1314
102.5496	12.8846	1.1131
102.5778	12.8846	1.1131
102.6061	10.6731	1.0130
102.6344	11.4423	1.0489
102.6626	12.0192	1.0750
102.6909	12.7885	1.1089
102.7192	13.1731	1.1255
102.7474	12.5962	1.1005
102.7757	13.6538	1.1458
102.8040	14.3269	1.1737
102.8322	13.2692	1.1296
102.8605	13.0769	1.1213
102.8888	15.2885	1.2125
102.9170	12.8846	1.1131
102.9453	10.0000	0.9806
102.9736	11.2500	1.0401
103.0018	12.8846	1.1131
103.0301	12.8846	1.1131
103.0584	14.7115	1.1894
103.0866	11.2500	1.0401
103.1149	11.3462	1.0445
103.1432	11.6346	1.0577
103.1714	14.7115	1.1894
103.1997	12.5962	1.1005
103.2279	12.9808	1.1172
103.2562	10.9615	1.0266
103.2845	12.3077	1.0879
103.3127	12.3077	1.0879
103.3410	14.9038	1.1971
103.3693	14.7115	1.1894
103.3975	9.9038	0.9759
103.4258	12.7885	1.1089
103.4541	12.5000	1.0963
103.4823	12.2115	1.0836
103.5106	13.3654	1.1336
103.5389	11.7308	1.0621
103.5671	15.0962	1.2048
103.5954	12.8846	1.1131
103.6237	13.0769	1.1213
103.6519	12.7885	1.1089
103.6802	13.4615	1.1377
103.7085	13.3654	1.1336
103.7367	13.0769	1.1213
103.7650	11.5385	1.0533
103.7933	12.5962	1.1005
103.8215	11.3462	1.0445
103.8498	11.5385	1.0533
103.8781	13.5577	1.1418
103.9063	12.9808	1.1172
103.9346	13.8462	1.1538
103.9629	14.5192	1.1816
103.9911	11.9231	1.0707
104.0194	12.1154	1.0793
104.0476	10.9615	1.0266
104.0759	12.4038	1.0921
104.1042	12.4038	1.0921
104.1324	10.2885	0.9946
104.1607	11.6346	1.0577
104.1890	12.3077	1.0879
104.2172	12.4038	1.0921
104.2455	14.2308	1.1698
104.2738	12.5000	1.0963
104.3020	12.7885	1.1089
104.3303	12.0192	1.0750
104.3586	14.1346	1.1658
104.3868	12.6923	1.1047
104.4151	13.0769	1.1213
104.4434	13.6538	1.1458
104.4716	12.6923	1.1047
104.4999	12.5000	1.0963
104.5282	13.0769	1.1213
104.5564	12.3077	1.0879
104.5847	12.4038	1.0921
104.6130	13.0769	1.1213
104.6412	13.0769	1.1213
104.6695	13.5577	1.1418
104.6978	11.6346	1.0577
104.7260	8.9423	0.9273
104.7543	15.2885	1.2125
104.7826	11.9231	1.0707
104.8108	12.5000	1.0963
104.8391	11.2500	1.0401
104.8674	12.8846	1.1131
104.8956	12.7885	1.1089
104.9239	12.6923	1.1047
104.9521	12.9808	1.1172
104.9804	13.0769	1.1213
105.0087	13.0769	1.1213
105.0369	12.5962	1.1005
105.0652	13.8462	1.1538
105.0935	12.5962	1.1005
105.1217	13.2692	1.1296
105.1500	11.8269	1.0664
105.1783	12.6923	1.1047
105.2065	11.1538	1.0356
105.2348	10.1923	0.9900
105.2631	11.4423	1.0489
105.2913	15.0000	1.2010
105.3196	12.0192	1.0750
105.3479	13.1731	1.1255
105.3761	11.1111	1.0143
105.4044	12.5926	1.0798
105.4327	11.9444	1.0516
105.4609	12.6852	1.0838
105.4892	9.4444	0.9351
105.5175	12.6852	1.0838
105.5457	11.0000	1.0000
105.5740	13.0909	1.0909
105.6023	12.2727	1.0563
105.6305	10.9091	0.9959
105.6588	12.1818	1.0523
105.6871	12.5455	1.0679
105.7153	11.5455	1.0245
105.7436	11.4545	1.0205
105.7718	12.0000	1.0445
105.8001	9.6364	0.9360
105.8284	14.2727	1.1391
105.8566	10.5455	0.9791
105.8849	12.8182	1.0795
105.9132	11.4545	1.0205
105.9414	11.6364	1.0285
105.9697	11.2727	1.0123
105.9980	10.4545	0.9749
106.0262	14.4545	1.1463
106.0545	11.5455	1.0245
106.0828	11.0000	1.0000
106.1110	10.6364	0.9833
106.1393	12.8182	1.0795
106.1676	12.3636	1.0602
106.1958	13.7273	1.1171
106.2241	12.3636	1.0602
106.2524	12.4545	1.0641
106.2806	13.0909	1.0909
106.3089	13.7273	1.1171
106.3372	14.0000	1.1282
106.3654	11.7273	1.0325
106.3937	12.5455	1.0679
106.4220	12.0000	1.0445
106.4502	11.3636	1.0164
106.4785	12.1818	1.0523
106.5068	11.7273	1.0325
106.5350	12.0909	1.0484
106.5633	10.7273	0.9875
106.5915	11.1818	1.0082
106.6198	11.8182	1.0365
106.6481	12.0909	1.0484
106.6763	12.0909	1.0484
106.7046	12.2727	1.0563
106.7329	12.5455	1.0679
106.7611	12.0909	1.0484
106.7894	12.6364	1.0718
106.8177	11.6364	1.0285
106.8459	11.1818	1.0082
106.8742	11.9091	1.0405
106.9025	13.3636	1.1022
106.9307	12.0909	1.0484
106.9590	12.5455	1.0679
106.9873	12.1818	1.0523
107.0155	12.9091	1.0833
107.0438	13.6364	1.1134
107.0721	12.2727	1.0563
107.1003	12.9091	1.0833
107.1286	10.8182	0.9917
107.1569	13.3636	1.1022
107.1851	11.6364	1.0285
107.2134	10.8182	0.9917
107.2417	10.4545	0.9749
107.2699	12.3636	1.0602
107.2982	11.7273	1.0325
107.3265	13.5455	1.1097
107.3547	12.0909	1.0484
107.3830	12.2727	1.0563
107.4113	13.0909	1.0909
107.4395	12.8182	1.0795
107.4678	12.0000	1.0445
107.4960	12.2727	1.0563
107.5243	14.0000	1.1282
107.5526	15.6364	1.1923
107.5808	11.5455	1.0245
107.6091	12.2727	1.0563
107.6374	12.0909	1.0484
107.6656	12.7273	1.0757
107.6939	11.8182	1.0365
107.7222	12.3636	1.0602
107.7504	13.4545	1.1060
107.7787	13.3636	1.1022
107.8070	11.4545	1.0205
107.8352	12.5455	1.0679
107.8635	14.2727	1.1391
107.8918	14.0909	1.1318
107.9200	12.7273	1.0757
107.9483	11.6364	1.0285
107.9766	11.3636	1.0164
108.0048	12.3636	1.0602
108.0331	12.0909	1.0484
108.0614	11.5455	1.0245
108.0896	12.2727	1.0563
108.1179	11.1818	1.0082
108.1462	14.3636	1.1427
108.1744	11.4545	1.0205
108.2027	11.6364	1.0285
108.2310	12.2727	1.0563
108.2592	11.8182	1.0365
108.2875	12.8182	1.0795
108.3157	10.6364	0.9833
108.3440	13.5455	1.1097
108.3723	13.8182	1.1208
108.4005	12.5455	1.0679
108.4288	13.0909	1.0909
108.4571	13.6364	1.1134
108.4853	10.6140	0.9649
108.5136	12.1053	1.0305
108.5419	13.1579	1.0743
108.5701	11.9298	1.0230
108.5984	14.1228	1.1130
108.6267	13.4211	1.0850
108.6549	11.4035	1.0002
108.6832	11.1404	0.9885
108.7115	12.6364	1.0718
108.7397	11.4545	1.0205
108.7680	11.4545	1.0205
108.7963	12.8182	1.0795
108.8245	12.3148	1.0678
108.8528	14.4444	1.1565
108.8811	13.9423	1.1578
108.9093	13.9423	1.1578
108.9376	11.2500	1.0401
108.9659	11.4423	1.0489
108.9941	11.4000	1.0677
109.0224	12.0000	1.0954
109.0507	11.7000	1.0817
109.0789	13.2000	1.1489
109.1072	12.7551	1.1409
109.1355	12.3469	1.1224
109.1637	12.0213	1.1309
109.1920	11.9149	1.1259
109.2202	12.0213	1.1309
109.2485	15.1064	1.2677
109.2768	12.2222	1.1653
109.3050	12.8889	1.1967
109.3333	14.1111	1.2522
109.3616	13.3333	1.2172
109.3898	13.9773	1.2603
109.4181	13.4091	1.2344
109.4464	15.1190	1.3416
109.4746	13.2143	1.2542
109.5029	12.9762	1.2429
109.5312	11.9048	1.1905
109.5594	11.2500	1.1859
109.5877	9.7500	1.1040
109.6160	11.6250	1.2055
109.6442	12.3750	1.2437
109.6725	12.8205	1.2821
109.7008	13.0769	1.2948
109.7290	13.5135	1.3514
109.7573	12.7027	1.3102
109.7856	12.9730	1.3240
109.8138	13.2432	1.3378
109.8421	14.1667	1.4027
109.8704	13.0556	1.3466
109.8986	11.1429	1.2617
109.9269	13.0000	1.3628
109.9552	10.2941	1.2304
109.9834	12.2059	1.3398
