1.540593
20.0141	69.5000	3.4034
20.0424	79.0000	3.6286
20.0707	74.5000	3.5237
20.0989	82.1667	3.7006
20.1272	71.0000	3.4400
20.1555	80.1667	3.6553
20.1837	69.5000	3.4034
20.2120	67.5000	3.3541
20.2403	75.8333	3.5551
20.2685	77.5000	3.5940
20.2968	73.3333	3.4960
20.3251	75.3333	3.5434
20.3533	71.8333	3.4601
20.3816	73.5000	3.5000
20.4099	67.5000	3.3541
20.4381	78.6667	3.6209
20.4664	77.5000	3.5940
20.4946	71.5000	3.4521
20.5229	70.0000	3.4157
20.5512	65.8333	3.3124
20.5794	73.5484	3.4442
20.6077	73.5484	3.4442
20.6360	67.9032	3.3094
20.6642	79.0323	3.5703
20.6925	74.6774	3.4706
20.7208	75.1613	3.4818
20.7490	72.2581	3.4139
20.7773	67.7419	3.3055
20.8056	64.0323	3.2137
20.8338	74.6774	3.4706
20.8621	73.2258	3.4367
20.8904	65.0000	3.2379
20.9186	65.1613	3.2419
20.9469	70.0000	3.3601
20.9752	69.6774	3.3524
21.0034	73.0645	3.4329
21.0317	72.0968	3.4101
21.0600	71.6129	3.3986
21.0882	74.5161	3.4668
21.1165	67.4194	3.2976
21.1448	71.7742	3.4024
21.1730	72.7419	3.4253
21.2013	62.9032	3.1852
21.2296	70.0000	3.3601
21.2578	64.5161	3.2258
21.2861	70.9677	3.3833
21.3143	68.3871	3.3212
21.3426	73.2258	3.4367
21.3709	65.1613	3.2419
21.3991	70.6452	3.3756
21.4274	63.0645	3.1893
21.4557	69.5313	3.2961
21.4839	67.9688	3.2589
21.5122	72.0313	3.3548
21.5405	66.5625	3.2250
21.5687	65.3125	3.1945
21.5970	67.9688	3.2589
21.6253	65.0000	3.1869
21.6535	65.6250	3.2022
21.6818	62.5000	3.1250
21.7101	59.6875	3.0539
21.7383	65.4688	3.1984
21.7666	66.4063	3.2212
21.7949	63.1250	3.1406
21.8231	60.9375	3.0857
21.8514	61.8750	3.1093
21.8797	64.8438	3.1831
21.9079	65.0000	3.1869
21.9362	68.2813	3.2663
21.9645	66.5625	3.2250
21.9927	65.1563	3.1907
22.0210	66.7188	3.2287
22.0493	65.1563	3.1907
22.0775	67.3438	3.2438
22.1058	65.3125	3.1945
22.1340	68.2813	3.2663
22.1623	60.6250	3.0778
22.1906	64.0625	3.1638
22.2188	61.0938	3.0896
22.2471	61.5625	3.1015
22.2754	57.6563	3.0015
22.3036	69.5313	3.2961
22.3319	57.5000	2.9974
22.3602	65.0000	3.1869
22.3884	63.1250	3.1406
22.4167	63.9063	3.1600
22.4450	61.5625	3.1015
22.4732	61.8750	3.1093
22.5015	66.5625	3.2250
22.5298	60.7813	3.0817
22.5580	59.2188	3.0419
22.5863	67.0313	3.2363
22.6146	61.5625	3.1015
22.6428	64.8438	3.1831
22.6711	61.5625	3.1015
22.6994	61.5625	3.1015
22.7276	61.0938	3.0896
22.7559	59.8438	3.0579
22.7842	63.2813	3.1445
22.8124	60.0000	3.0619
22.8407	66.0938	3.2136
22.8690	57.6471	2.9116
22.8972	59.2647	2.9522
22.9255	58.2353	2.9264
22.9538	60.0000	2.9704
22.9820	56.3235	2.8780
23.0103	56.9118	2.8930
23.0385	56.1765	2.8742
23.0668	58.2353	2.9264
23.0951	53.5294	2.8057
23.1233	62.5000	3.0317
23.1516	57.9412	2.9190
23.1799	56.6176	2.8855
23.2081	60.2941	2.9777
23.2364	56.0294	2.8705
23.2647	59.0000	2.9032
23.2929	52.1429	2.7293
23.3212	54.5714	2.7921
23.3495	56.2857	2.8356
23.3777	58.5714	2.8926
23.4060	56.0000	2.8284
23.4343	58.7143	2.8962
23.4625	62.5714	2.9898
23.4908	62.4286	2.9864
23.5191	53.5714	2.7664
23.5473	55.7143	2.8212
23.5756	52.8571	2.7479
23.6039	56.0000	2.8284
23.6321	54.7143	2.7958
23.6604	58.1429	2.8820
23.6887	53.2857	2.7590
23.7169	51.2857	2.7068
23.7452	47.7143	2.6108
23.7735	55.1429	2.8067
23.8017	56.4286	2.8392
23.8300	56.4286	2.8392
23.8582	54.2857	2.7848
23.8865	57.4286	2.8643
23.9148	53.0000	2.7516
23.9430	51.1429	2.7030
23.9713	55.8571	2.8248
23.9996	50.4286	2.6840
24.0278	52.8571	2.7479
24.0561	54.7143	2.7958
24.0844	50.8571	2.6954
24.1126	48.8571	2.6419
24.1409	53.5714	2.7664
24.1692	53.5714	2.7664
24.1974	53.1429	2.7553
24.2257	53.0000	2.7516
24.2540	51.8056	2.6824
24.2822	49.0278	2.6095
24.3105	49.8611	2.6316
24.3388	55.6944	2.7812
24.3670	55.0000	2.7639
24.3953	52.6389	2.7039
24.4236	48.3333	2.5909
24.4518	52.0833	2.6896
24.4801	52.9167	2.7110
24.5084	53.6111	2.7287
24.5366	56.5278	2.8020
24.5649	53.4722	2.7252
24.5932	55.1389	2.7673
24.6214	48.5135	2.5604
24.6497	51.7568	2.6446
24.6780	55.2703	2.7329
24.7062	48.9189	2.5711
24.7345	51.6216	2.6412
24.7627	50.4054	2.6099
24.7910	52.4324	2.6619
24.8193	52.9730	2.6755
24.8475	52.1622	2.6550
24.8758	50.4054	2.6099
24.9041	48.5135	2.5604
24.9323	51.3514	2.6343
24.9606	47.9730	2.5461
24.9889	49.0541	2.5747
25.0171	53.7838	2.6959
25.0454	53.6486	2.6925
25.0737	42.9730	2.4098
25.1019	51.4865	2.6377
25.1302	51.2162	2.6308
25.1585	48.5135	2.5604
25.1867	48.7838	2.5676
25.2150	55.6757	2.7429
25.2433	52.0270	2.6515
25.2715	51.4865	2.6377
25.2998	54.0541	2.7027
25.3281	43.9189	2.4362
25.3563	49.7297	2.5923
25.3846	52.9730	2.6755
25.4129	47.4324	2.5318
25.4411	50.9459	2.6238
25.4694	47.8378	2.5426
25.4977	45.8108	2.4881
25.5259	47.8378	2.5426
25.5542	48.7838	2.5676
25.5824	45.2703	2.4734
25.6107	48.6486	2.5640
25.6390	50.9459	2.6238
25.6672	51.2162	2.6308
25.6955	50.5405	2.6134
25.7238	47.7027	2.5390
25.7520	47.7027	2.5390
25.7803	50.6757	2.6169
25.8086	47.5676	2.5354
25.8368	49.8649	2.5959
25.8651	51.8919	2.6481
25.8934	44.5946	2.4549
25.9216	47.4324	2.5318
25.9499	47.1795	2.4594
25.9782	44.8718	2.3985
26.0064	43.8462	2.3709
26.0347	48.8462	2.5025
26.0630	43.7179	2.3675
26.0912	46.5385	2.4426
26.1195	44.1026	2.3779
26.1478	48.0769	2.4827
26.1760	48.9744	2.5057
26.2043	46.6667	2.4460
26.2326	43.7179	2.3675
26.2608	42.1795	2.3254
26.2891	47.9487	2.4794
26.3174	46.5385	2.4426
26.3456	44.7436	2.3951
26.3739	46.2821	2.4359
26.4021	42.4359	2.3325
26.4304	45.2564	2.4088
26.4587	42.5641	2.3360
26.4869	44.4872	2.3882
26.5152	46.6667	2.4460
26.5435	42.9487	2.3465
26.5717	48.2051	2.4860
26.6000	47.5641	2.4694
26.6283	49.1026	2.5090
26.6565	44.8718	2.3985
26.6848	45.1282	2.4053
26.7131	45.0000	2.4019
26.7413	45.1282	2.4053
26.7696	50.1282	2.5351
26.7979	45.1282	2.4053
26.8261	44.7436	2.3951
26.8544	44.1026	2.3779
26.8827	44.4872	2.3882
26.9109	43.5897	2.3640
26.9392	43.7179	2.3675
26.9675	42.0513	2.3219
26.9957	39.4872	2.2500
27.0240	45.6410	2.4190
27.0523	42.7500	2.3117
27.0805	43.8750	2.3419
27.1088	39.6250	2.2256
27.1371	40.7500	2.2569
27.1653	41.6250	2.2810
27.1936	43.6250	2.3352
27.2219	46.0000	2.3979
27.2501	45.0000	2.3717
27.2784	39.2500	2.2150
27.3066	40.2500	2.2430
27.3349	45.3750	2.3816
27.3632	41.2500	2.2707
27.3914	40.7500	2.2569
27.4197	41.1250	2.2673
27.4480	45.7500	2.3914
27.4762	42.1250	2.2947
27.5045	43.8750	2.3419
27.5328	42.6250	2.3083
27.5610	42.1250	2.2947
27.5893	44.5000	2.3585
27.6176	42.6250	2.3083
27.6458	42.7500	2.3117
27.6741	46.5000	2.4109
27.7024	42.0000	2.2913
27.7306	40.3750	2.2465
27.7589	45.7500	2.3914
27.7872	45.6250	2.3881
27.8154	44.2500	2.3519
27.8437	40.8750	2.2604
27.8720	38.3750	2.1902
27.9002	43.6250	2.3352
27.9285	42.2500	2.2981
27.9568	47.3750	2.4335
27.9850	43.1250	2.3218
28.0133	45.0000	2.3717
28.0416	42.0000	2.2913
28.0698	46.6250	2.4142
28.0981	43.0000	2.3184
28.1263	41.7500	2.2845
28.1546	43.8750	2.3419
28.1829	43.1250	2.3218
28.2111	45.5000	2.3848
28.2394	46.0000	2.3979
28.2677	40.3750	2.2465
28.2959	42.7500	2.3117
28.3242	42.8750	2.3150
28.3525	43.3750	2.3285
28.3807	42.1250	2.2947
28.4090	43.1250	2.3218
28.4373	39.7500	2.2291
28.4655	41.4286	2.2208
28.4938	36.9048	2.0960
28.5221	40.7143	2.2016
28.5503	39.2857	2.1626
28.5786	39.2857	2.1626
28.6069	40.8333	2.2048
28.6351	39.1667	2.1593
28.6634	42.0238	2.2367
28.6917	40.3571	2.1919
28.7199	37.0238	2.0994
28.7482	41.4286	2.2208
28.7765	37.9762	2.1263
28.8047	40.7143	2.2016
28.8330	39.0476	2.1560
28.8613	41.7857	2.2304
28.8895	36.3095	2.0791
28.9178	39.2857	2.1626
28.9461	36.5476	2.0859
28.9743	39.4048	2.1659
29.0026	41.4286	2.2208
29.0308	44.4048	2.2992
29.0591	37.8571	2.1229
29.0874	37.5000	2.1129
29.1156	37.1429	2.1028
29.1439	37.2619	2.1062
29.1722	41.9048	2.2335
29.2004	36.0714	2.0722
29.2287	38.3333	2.1362
29.2570	35.7143	2.0620
29.2852	35.9524	2.0688
29.3135	36.9048	2.0960
29.3418	38.2143	2.1329
29.3700	39.4048	2.1659
29.3983	38.8095	2.1495
29.4266	36.9048	2.0960
29.4548	38.0952	2.1296
29.4831	40.2381	2.1887
29.5114	33.5714	1.9991
29.5396	37.0238	2.0994
29.5679	33.4524	1.9956
29.5962	34.0476	2.0133
29.6244	35.9524	2.0688
29.6527	39.5238	2.1692
29.6810	40.3571	2.1919
29.7092	37.5000	2.1129
29.7375	37.6190	2.1162
29.7658	39.1667	2.1593
29.7940	38.3333	2.1362
29.8223	36.7857	2.0927
29.8505	34.8810	2.0378
29.8788	35.4545	2.0072
29.9071	38.6364	2.0954
29.9353	36.2500	2.0296
29.9636	37.6136	2.0674
29.9919	32.4444	1.8987
30.0201	36.1111	2.0031
30.0484	34.4444	1.9563
30.0767	36.3333	2.0092
30.1049	37.6667	2.0458
30.1332	36.6667	2.0184
30.1615	30.8889	1.8526
30.1897	33.8889	1.9405
30.2180	36.7778	2.0215
30.2463	38.0000	2.0548
30.2745	41.3333	2.1430
30.3028	36.1111	2.0031
30.3311	33.5556	1.9309
30.3593	35.4444	1.9845
30.3876	35.2222	1.9783
30.4159	34.7778	1.9658
30.4441	37.3333	2.0367
30.4724	36.5556	2.0154
30.5007	36.4444	2.0123
30.5289	34.7778	1.9658
30.5572	35.7778	1.9938
30.5855	39.2222	2.0876
30.6137	36.7778	2.0215
30.6420	35.4444	1.9845
30.6702	33.1111	1.9181
30.6985	33.5556	1.9309
30.7268	30.4444	1.8392
30.7550	32.6667	1.9052
30.7833	35.7778	1.9938
30.8116	33.0000	1.9149
30.8398	36.3333	2.0092
30.8681	33.7778	1.9373
30.8964	30.3333	1.8359
30.9246	35.4444	1.9845
30.9529	32.1111	1.8889
30.9812	36.4444	2.0123
31.0094	33.0000	1.9149
31.0377	32.6667	1.9052
31.0660	30.6667	1.8459
31.0942	34.1111	1.9468
31.1225	31.7778	1.8791
31.1508	35.2222	1.9783
31.1790	36.0000	2.0000
31.2073	30.3333	1.8359
31.2356	32.5556	1.9019
31.2638	32.7778	1.9084
31.2921	33.3333	1.9245
31.3204	34.4444	1.9563
31.3486	33.4043	1.8851
31.3769	30.5319	1.8022
31.4052	33.5106	1.8881
31.4334	32.6596	1.8640
31.4617	31.3830	1.8272
31.4900	33.0851	1.8761
31.5182	30.6383	1.8054
31.5465	30.0000	1.7865
31.5747	32.6596	1.8640
31.6030	32.6596	1.8640
31.6313	33.5106	1.8881
31.6595	34.5745	1.9178
31.6878	34.3617	1.9119
31.7161	29.2553	1.7642
31.7443	32.2340	1.8518
31.7726	30.5319	1.8022
31.8009	33.9362	1.9001
31.8291	32.9787	1.8731
31.8574	31.9149	1.8426
31.8857	32.6596	1.8640
31.9139	34.2553	1.9090
31.9422	30.4255	1.7991
31.9705	32.1277	1.8487
31.9987	30.3191	1.7960
32.0270	32.5532	1.8609
32.0553	29.5745	1.7738
32.0835	31.7021	1.8365
32.1118	32.3404	1.8549
32.1401	34.0426	1.9030
32.1683	27.8723	1.7220
32.1966	28.6170	1.7448
32.2249	30.9574	1.8148
32.2531	30.8511	1.8116
32.2814	31.4894	1.8303
32.3097	30.1064	1.7896
32.3379	30.2128	1.7928
32.3662	30.0000	1.7865
32.3944	29.1489	1.7610
32.4227	29.7872	1.7801
32.4510	31.7021	1.8365
32.4792	29.5745	1.7738
32.5075	31.9149	1.8426
32.5358	30.9574	1.8148
32.5640	29.6809	1.7769
32.5923	31.1702	1.8210
32.6206	32.6596	1.8640
32.6488	28.2979	1.7351
32.6771	30.6383	1.8054
32.7054	28.7755	1.7136
32.7336	27.2449	1.6674
32.7619	27.1429	1.6642
32.7902	29.0816	1.7226
32.8184	28.7755	1.7136
32.8467	31.0204	1.7791
32.8750	29.6939	1.7407
32.9032	30.9184	1.7762
32.9315	30.3061	1.7585
32.9598	33.0612	1.8367
32.9880	28.4694	1.7044
33.0163	29.5918	1.7377
33.0446	30.1020	1.7526
33.0728	28.3673	1.7014
33.1011	30.9184	1.7762
33.1294	28.8776	1.7166
33.1576	28.6735	1.7105
33.1859	26.7347	1.6517
33.2142	30.7143	1.7703
33.2424	28.8776	1.7166
33.2707	32.4490	1.8196
33.2989	29.0816	1.7226
33.3272	31.8367	1.8024
33.3555	31.6327	1.7966
33.3837	27.5510	1.6767
33.4120	29.1837	1.7257
33.4403	29.8980	1.7467
33.4685	28.8776	1.7166
33.4968	26.9388	1.6580
33.5251	31.5306	1.7937
33.5533	25.3061	1.6069
33.5816	31.3265	1.7879
33.6099	27.5510	1.6767
33.6381	28.6735	1.7105
33.6664	28.4694	1.7044
33.6947	31.6327	1.7966
33.7229	31.2245	1.7850
33.7512	32.3469	1.8168
33.7795	26.6327	1.6485
33.8077	26.3265	1.6390
33.8360	31.9388	1.8053
33.8643	27.6531	1.6798
33.8925	27.7551	1.6829
33.9208	28.4694	1.7044
33.9491	26.5306	1.6454
33.9773	27.2449	1.6674
34.0056	30.3061	1.7585
34.0339	30.6000	1.7493
34.0621	29.2000	1.7088
34.0904	30.2000	1.7378
34.1186	29.1000	1.7059
34.1469	28.4000	1.6852
34.1752	25.9000	1.6093
34.2034	31.8000	1.7833
34.2317	30.4000	1.7436
34.2600	26.7000	1.6340
34.2882	26.8000	1.6371
34.3165	27.4000	1.6553
34.3448	29.0000	1.7029
34.3730	27.4000	1.6553
34.4013	29.5000	1.7176
34.4296	34.3000	1.8520
34.4578	30.1000	1.7349
34.4861	28.9000	1.7000
34.5144	27.0000	1.6432
34.5426	27.7000	1.6643
34.5709	23.6000	1.5362
34.5992	26.8000	1.6371
34.6274	29.3000	1.7117
34.6557	28.5000	1.6882
34.6840	30.4000	1.7436
34.7122	27.0000	1.6432
34.7405	25.4000	1.5937
34.7688	28.6000	1.6912
34.7970	30.4000	1.7436
34.8253	29.0000	1.7029
34.8536	27.9000	1.6703
34.8818	29.3000	1.7117
34.9101	26.7000	1.6340
34.9383	26.5000	1.6279
34.9666	30.1000	1.7349
34.9949	29.9000	1.7292
35.0231	27.9000	1.6703
35.0514	29.3000	1.7117
35.0797	25.1000	1.5843
35.1079	26.3000	1.6217
35.1362	28.7000	1.6941
35.1645	28.7000	1.6941
35.1927	28.9000	1.7000
35.2210	27.3000	1.6523
35.2493	27.1000	1.6462
35.2775	26.2000	1.6186
35.3058	27.8000	1.6673
35.3341	23.7000	1.5395
35.3623	28.8000	1.6971
35.3906	27.3077	1.6204
35.4189	26.3462	1.5916
35.4471	26.7308	1.6032
35.4754	28.6538	1.6599
35.5037	24.5192	1.5355
35.5319	28.8462	1.6654
35.5602	27.5000	1.6261
35.5885	25.6731	1.5712
35.6167	28.7500	1.6627
35.6450	25.0000	1.5504
35.6733	23.0769	1.4896
35.7015	28.3654	1.6515
35.7298	27.1154	1.6147
35.7581	29.1346	1.6737
35.7863	25.0962	1.5534
35.8146	29.3269	1.6793
35.8428	25.9615	1.5800
35.8711	26.7308	1.6032
35.8994	27.2115	1.6176
35.9276	27.0192	1.6118
35.9559	27.5962	1.6289
35.9842	26.4423	1.5945
36.0124	24.9038	1.5474
36.0407	26.8269	1.6061
36.0690	26.5385	1.5974
36.0972	25.6731	1.5712
36.1255	26.8269	1.6061
36.1538	26.7308	1.6032
36.1820	25.5769	1.5682
36.2103	25.5769	1.5682
36.2386	26.9231	1.6090
36.2668	26.2500	1.5887
36.2951	27.2115	1.6176
36.3234	28.1731	1.6459
36.3516	26.6346	1.6003
36.3799	27.1154	1.6147
36.4082	26.7308	1.6032
36.4364	27.0192	1.6118
36.4647	25.8654	1.5770
36.4930	26.6346	1.6003
36.5212	25.0962	1.5534
36.5495	25.7692	1.5741
36.5778	27.4038	1.6233
36.6060	25.9615	1.5800
36.6343	26.3462	1.5916
36.6625	25.2885	1.5594
36.6908	25.0962	1.5534
36.7191	26.0577	1.5829
36.7473	22.8704	1.4552
36.7756	25.1852	1.5271
36.8039	25.6481	1.5410
36.8321	26.5741	1.5686
36.8604	24.4444	1.5045
36.8887	22.0909	1.4171
36.9169	26.0000	1.5374
36.9452	23.8182	1.4715
36.9735	27.4545	1.5798
37.0017	24.0909	1.4799
37.0300	25.0000	1.5076
37.0583	22.7273	1.4374
37.0865	23.1818	1.4517
37.1148	24.2727	1.4855
37.1431	23.9091	1.4743
37.1713	26.3636	1.5481
37.1996	22.6364	1.4345
37.2279	25.3636	1.5185
37.2561	23.0000	1.4460
37.2844	25.0000	1.5076
37.3127	22.7273	1.4374
37.3409	21.8182	1.4084
37.3692	28.3636	1.6058
37.3975	22.6364	1.4345
37.4257	25.1818	1.5130
37.4540	25.2727	1.5158
37.4823	24.0000	1.4771
37.5105	25.6364	1.5266
37.5388	24.0000	1.4771
37.5670	23.0000	1.4460
37.5953	25.8182	1.5320
37.6236	24.3636	1.4882
37.6518	26.9091	1.5641
37.6801	23.6364	1.4659
37.7084	24.8182	1.5021
37.7366	23.8182	1.4715
37.7649	26.6364	1.5561
37.7932	26.3636	1.5481
37.8214	24.9091	1.5048
37.8497	22.7273	1.4374
37.8780	26.3636	1.5481
37.9062	26.9091	1.5641
37.9345	25.7273	1.5293
37.9628	24.8182	1.5021
37.9910	27.0000	1.5667
38.0193	24.5455	1.4938
38.0476	26.1818	1.5428
38.0758	28.1818	1.6006
38.1041	25.8182	1.5320
38.1324	26.7273	1.5588
38.1606	23.9091	1.4743
38.1889	27.2727	1.5746
38.2172	27.4545	1.5798
38.2454	27.2727	1.5746
38.2737	28.5455	1.6109
38.3020	25.2632	1.4886
38.3302	29.7368	1.6151
38.3585	27.1930	1.5445
38.3867	29.4737	1.6079
38.4150	25.7895	1.5041
38.4433	29.8246	1.6175
38.4715	29.4737	1.6079
38.4998	27.9825	1.5667
38.5281	32.6316	1.6919
38.5563	29.7368	1.6151
38.5846	31.0526	1.6504
38.6129	29.8246	1.6175
38.6411	32.1053	1.6782
38.6694	30.8772	1.6458
38.6977	29.2982	1.6031
38.7259	30.2632	1.6293
38.7542	36.1404	1.7805
38.7825	32.8947	1.6987
38.8107	34.1228	1.7301
38.8390	37.2807	1.8084
38.8673	33.3333	1.7100
38.8955	37.4561	1.8126
38.9238	44.2105	1.9693
38.9521	40.7018	1.8895
38.9803	38.5088	1.8379
39.0086	39.9123	1.8711
39.0369	43.2456	1.9477
39.0651	45.0877	1.9887
39.0934	49.3860	2.0814
39.1217	49.1228	2.0758
39.1499	58.6842	2.2689
39.1782	56.6667	2.2295
39.2064	65.8772	2.4039
39.2347	69.2105	2.4640
39.2630	71.3158	2.5012
39.2912	82.0175	2.6823
39.3195	88.0702	2.7795
39.3478	100.7895	2.9734
39.3760	106.8421	3.0614
39.4043	119.2105	3.2337
39.4326	144.9123	3.5653
39.4608	151.3158	3.6433
39.4891	159.5614	3.7412
39.5174	191.3158	4.0966
39.5456	205.7895	4.2487
39.5739	232.1053	4.5122
39.6022	260.1754	4.7773
39.6304	289.2982	5.0376
39.6587	310.7018	5.2206
39.6870	326.4407	5.2597
39.7152	345.1695	5.4085
39.7435	374.9153	5.6367
39.7718	376.5254	5.6488
39.8000	380.7627	5.6805
39.8283	365.8475	5.5681
39.8566	341.3559	5.3785
39.8848	319.5763	5.2041
39.9131	291.5254	4.9705
39.9414	250.3390	4.6060
39.9696	217.1186	4.2895
39.9979	180.6780	3.9130
40.0262	162.4576	3.7105
40.0544	137.2881	3.4110
40.0827	127.3729	3.2855
40.1109	104.7458	2.9794
40.1392	99.5763	2.9049
40.1675	86.6949	2.7105
40.1957	81.0169	2.6203
40.2240	76.3559	2.5438
40.2523	66.1864	2.3683
40.2805	63.9831	2.3286
40.3088	55.5932	2.1706
40.3371	52.2881	2.1050
40.3653	52.0339	2.0999
40.3936	46.1864	1.9784
40.4219	44.8305	1.9492
40.4501	42.8814	1.9063
40.4784	36.5254	1.7594
40.5067	38.8136	1.8136
40.5349	36.6949	1.7634
40.5632	34.9153	1.7202
40.5915	36.9492	1.7695
40.6197	33.8983	1.6949
40.6480	31.2712	1.6279
40.6763	32.4576	1.6585
40.7045	31.0169	1.6213
40.7328	30.4237	1.6057
40.7611	28.4746	1.5534
40.7893	31.0833	1.6094
40.8176	27.9167	1.5253
40.8459	25.1667	1.4482
40.8741	27.1667	1.5046
40.9024	27.9167	1.5253
40.9306	28.7500	1.5478
40.9589	27.5833	1.5161
40.9872	22.7500	1.3769
41.0154	26.1667	1.4767
41.0437	28.7500	1.5478
41.0720	25.9167	1.4696
41.1002	24.6667	1.4337
41.1285	27.5833	1.5161
41.1568	27.9167	1.5253
41.1850	25.5000	1.4577
41.2133	23.6667	1.4044
41.2416	24.7500	1.4361
41.2698	23.5000	1.3994
41.2981	24.5000	1.4289
41.3264	25.6667	1.4625
41.3546	22.4167	1.3668
41.3829	23.7500	1.4068
41.4112	25.2500	1.4506
41.4394	23.5000	1.3994
41.4677	20.3333	1.3017
41.4960	22.8333	1.3794
41.5242	21.6667	1.3437
41.5525	22.5000	1.3693
41.5808	22.6667	1.3744
41.6090	23.4167	1.3969
41.6373	22.5833	1.3718
41.6656	22.5000	1.3693
41.6938	24.7500	1.4361
41.7221	23.0833	1.3869
41.7504	23.9167	1.4118
41.7786	21.0833	1.3255
41.8069	23.5000	1.3994
41.8351	23.9167	1.4118
41.8634	22.6667	1.3744
41.8917	21.6667	1.3437
41.9199	21.3333	1.3333
41.9482	23.5833	1.4019
41.9765	22.1667	1.3591
42.0047	23.0000	1.3844
42.0330	23.4167	1.3969
42.0613	18.5833	1.2444
42.0895	22.6667	1.3744
42.1178	22.0968	1.3349
42.1461	22.8226	1.3567
42.1743	20.4839	1.2853
42.2026	23.8710	1.3875
42.2309	22.1774	1.3373
42.2591	20.4032	1.2827
42.2874	21.5323	1.3178
42.3157	21.5323	1.3178
42.3439	20.6452	1.2903
42.3722	20.1613	1.2751
42.4005	21.0484	1.3029
42.4287	22.5000	1.3470
42.4570	20.0806	1.2726
42.4853	21.4516	1.3153
42.5135	23.9516	1.3898
42.5418	22.6613	1.3519
42.5701	22.0161	1.3325
42.5983	20.4032	1.2827
42.6266	22.6613	1.3519
42.6548	19.2742	1.2467
42.6831	21.1290	1.3054
42.7114	21.2097	1.3078
42.7396	21.3710	1.3128
42.7679	19.4355	1.2519
42.7962	21.1290	1.3054
42.8244	19.8387	1.2649
42.8527	19.2742	1.2467
42.8810	19.8387	1.2649
42.9092	19.2742	1.2467
42.9375	22.0161	1.3325
42.9658	21.8548	1.3276
42.9940	20.4839	1.2853
43.0223	20.8065	1.2954
43.0506	17.9032	1.2016
43.0788	19.1935	1.2441
43.1071	20.8065	1.2954
43.1354	21.2097	1.3078
43.1636	20.0806	1.2726
43.1919	21.8548	1.3276
43.2202	21.7742	1.3251
43.2484	20.7258	1.2928
43.2767	19.3548	1.2493
43.3050	22.0161	1.3325
43.3332	22.3387	1.3422
43.3615	18.5484	1.2230
43.3898	20.0000	1.2700
43.4180	21.6935	1.3227
43.4463	19.9194	1.2674
43.4745	19.1935	1.2441
43.5028	21.2903	1.3103
43.5311	20.9677	1.3004
43.5593	22.9839	1.3614
43.5876	19.2742	1.2467
43.6159	22.7419	1.3543
43.6441	18.3065	1.2150
43.6724	20.7258	1.2928
43.7007	16.7742	1.1631
43.7289	20.4032	1.2827
43.7572	20.3226	1.2802
43.7855	20.7258	1.2928
43.8137	19.4355	1.2519
43.8420	22.5806	1.3495
43.8703	18.7903	1.2310
43.8985	22.0313	1.3119
43.9268	17.3438	1.1640
43.9551	16.4844	1.1348
43.9833	19.2969	1.2278
44.0116	19.2188	1.2253
44.0399	18.9063	1.2153
44.0681	20.3125	1.2597
44.0964	16.8750	1.1482
44.1247	17.8125	1.1797
44.1529	18.2813	1.1951
44.1812	21.8750	1.3073
44.2095	19.1406	1.2228
44.2377	19.1406	1.2228
44.2660	20.4688	1.2646
44.2943	17.8125	1.1797
44.3225	17.8125	1.1797
44.3508	19.0625	1.2204
44.3790	19.5313	1.2353
44.4073	17.3438	1.1640
44.4356	20.1563	1.2549
44.4638	19.1406	1.2228
44.4921	19.3750	1.2303
44.5204	19.6875	1.2402
44.5486	19.6875	1.2402
44.5769	21.0938	1.2837
44.6052	19.9219	1.2476
44.6334	17.7344	1.1771
44.6617	19.2969	1.2278
44.6900	20.0000	1.2500
44.7182	19.6875	1.2402
44.7465	18.5938	1.2053
44.7748	18.5938	1.2053
44.8030	19.5313	1.2353
44.8313	20.6250	1.2694
44.8596	18.7500	1.2103
44.8878	18.5938	1.2053
44.9161	19.2188	1.2253
44.9444	17.5781	1.1719
44.9726	18.6719	1.2078
45.0009	18.2813	1.1951
45.0292	19.2969	1.2278
45.0574	19.0625	1.2204
45.0857	19.9219	1.2476
45.1140	19.6875	1.2402
45.1422	16.4844	1.1348
45.1705	18.6719	1.2078
45.1987	18.3594	1.1976
45.2270	20.1563	1.2549
45.2553	20.2344	1.2573
45.2835	18.1250	1.1900
45.3118	17.8906	1.1822
45.3401	16.3281	1.1294
45.3683	20.3125	1.2597
45.3966	17.7344	1.1771
45.4249	17.8906	1.1822
45.4531	17.4219	1.1667
45.4814	19.5313	1.2353
45.5097	19.6875	1.2402
45.5379	18.1250	1.1900
45.5662	17.9688	1.1848
45.5945	20.3906	1.2621
45.6227	18.9844	1.2178
45.6510	19.9219	1.2476
45.6793	19.6094	1.2377
45.7075	16.2500	1.1267
45.7358	17.7344	1.1771
45.7641	20.5469	1.2670
45.7923	18.5938	1.2053
45.8206	20.7813	1.2742
45.8489	16.3281	1.1294
45.8771	19.6875	1.2402
45.9054	18.7500	1.2103
45.9337	18.2031	1.1925
45.9619	19.2969	1.2278
45.9902	19.9219	1.2476
46.0184	17.2656	1.1614
46.0467	15.6250	1.1049
46.0750	20.3906	1.2621
46.1032	17.7344	1.1771
46.1315	16.3281	1.1294
46.1598	18.8281	1.2128
46.1880	19.4531	1.2328
46.2163	18.6719	1.2078
46.2446	16.8750	1.1482
46.2728	18.7500	1.2103
46.3011	17.2656	1.1614
46.3294	17.2656	1.1614
46.3576	17.8906	1.1822
46.3859	20.0781	1.2524
46.4142	17.2656	1.1614
46.4424	18.3594	1.1976
46.4707	17.6563	1.1745
46.4990	15.5469	1.1021
46.5272	17.1875	1.1588
46.5555	16.0156	1.1186
46.5838	18.3594	1.1976
46.6120	17.9688	1.1848
46.6403	16.2500	1.1267
46.6686	16.3281	1.1294
46.6968	17.4219	1.1667
46.7251	16.3281	1.1294
46.7534	18.5938	1.2053
46.7816	19.2188	1.2253
46.8099	18.5156	1.2027
46.8382	16.7969	1.1455
46.8664	16.7188	1.1429
46.8947	15.9375	1.1158
46.9229	17.9688	1.1848
46.9512	18.5938	1.2053
46.9795	14.4531	1.0626
47.0077	19.3750	1.2303
47.0360	16.1719	1.1240
47.0643	14.9219	1.0797
47.0925	17.8125	1.1797
47.1208	19.1406	1.2228
47.1491	19.6875	1.2402
47.1773	17.0313	1.1535
47.2056	16.0938	1.1213
47.2339	15.8594	1.1131
47.2621	18.7500	1.2103
47.2904	16.7969	1.1455
47.3187	17.7344	1.1771
47.3469	17.6563	1.1745
47.3752	17.1875	1.1588
47.4035	19.1406	1.2228
47.4317	17.2656	1.1614
47.4600	17.9688	1.1848
47.4883	18.7500	1.2103
47.5165	17.5000	1.1693
47.5448	16.2500	1.1267
47.5731	17.1875	1.1588
47.6013	18.7500	1.2103
47.6296	15.9375	1.1158
47.6579	17.8125	1.1797
47.6861	16.0938	1.1213
47.7144	16.8750	1.1482
47.7426	17.5781	1.1719
47.7709	17.5781	1.1719
47.7992	15.7813	1.1104
47.8274	16.8750	1.1482
47.8557	17.2656	1.1614
47.8840	17.2656	1.1614
47.9122	18.9063	1.2153
47.9405	16.8750	1.1482
47.9688	17.0313	1.1535
47.9970	18.1250	1.1900
48.0253	17.3438	1.1640
48.0536	14.3750	1.0597
48.0818	16.2500	1.1267
48.1101	17.0313	1.1535
48.1384	17.9688	1.1848
48.1666	15.3125	1.0938
48.1949	17.6563	1.1745
48.2232	15.5469	1.1021
48.2514	17.8125	1.1797
48.2797	18.4375	1.2002
48.3080	18.1250	1.1900
48.3362	16.7188	1.1429
48.3645	15.4688	1.0993
48.3928	17.8125	1.1797
48.4210	15.5469	1.1021
48.4493	18.2031	1.1925
48.4776	18.0469	1.1874
48.5058	15.7813	1.1104
48.5341	15.7031	1.1076
48.5624	16.9531	1.1509
48.5906	17.3438	1.1640
48.6189	18.3594	1.1976
48.6471	16.2500	1.1267
48.6754	17.7344	1.1771
48.7037	16.4844	1.1348
48.7319	17.4219	1.1667
48.7602	16.4063	1.1321
48.7885	17.2656	1.1614
48.8167	15.5469	1.1021
48.8450	18.1250	1.1900
48.8733	16.9531	1.1509
48.9015	14.0625	1.0482
48.9298	18.0469	1.1874
48.9581	16.4844	1.1348
48.9863	17.8906	1.1822
49.0146	17.0313	1.1535
49.0429	19.4531	1.2328
49.0711	14.6875	1.0712
49.0994	15.3125	1.0938
49.1277	15.7813	1.1104
49.1559	18.5156	1.2027
49.1842	16.7969	1.1455
49.2125	18.6719	1.2078
49.2407	18.2813	1.1951
49.2690	16.7188	1.1429
49.2973	17.8906	1.1822
49.3255	17.5000	1.1693
49.3538	17.5781	1.1719
49.3821	17.3438	1.1640
49.4103	16.7188	1.1429
49.4386	18.1250	1.1900
49.4668	15.7031	1.1076
49.4951	17.7344	1.1771
49.5234	17.5000	1.1693
49.5516	16.7969	1.1455
49.5799	18.5938	1.2053
49.6082	15.6250	1.1049
49.6364	15.7813	1.1104
49.6647	17.7344	1.1771
49.6930	15.3906	1.0965
49.7212	14.2969	1.0569
49.7495	15.3906	1.0965
49.7778	17.7344	1.1771
49.8060	15.3906	1.0965
49.8343	16.4844	1.1348
49.8626	16.9531	1.1509
49.8908	15.5469	1.1021
49.9191	17.4219	1.1667
49.9474	16.9531	1.1509
49.9756	17.1875	1.1588
50.0039	15.1563	1.0882
50.0322	18.2813	1.1951
50.0604	15.7813	1.1104
50.0887	15.7031	1.1076
50.1170	17.8125	1.1797
50.1452	17.5781	1.1719
50.1735	16.3281	1.1294
50.2018	15.3906	1.0965
50.2300	15.7031	1.1076
50.2583	15.8594	1.1131
50.2865	14.7656	1.0740
50.3148	15.9375	1.1158
50.3431	15.2344	1.0910
50.3713	15.6250	1.1049
50.3996	14.9219	1.0797
50.4279	17.9688	1.1848
50.4561	15.5469	1.1021
50.4844	17.1094	1.1561
50.5127	16.5625	1.1375
50.5409	15.7813	1.1104
50.5692	16.6406	1.1402
50.5975	17.8906	1.1822
50.6257	17.5781	1.1719
50.6540	14.2969	1.0569
50.6823	17.9688	1.1848
50.7105	14.6875	1.0712
50.7388	16.1719	1.1240
50.7671	17.0313	1.1535
50.7953	15.3125	1.0938
50.8236	16.4063	1.1321
50.8519	17.8906	1.1822
50.8801	15.6250	1.1049
50.9084	16.2500	1.1267
50.9367	16.8750	1.1482
50.9649	17.1094	1.1561
50.9932	14.8438	1.0769
51.0215	14.8438	1.0769
51.0497	16.4844	1.1348
51.0780	16.4844	1.1348
51.1063	15.0781	1.0853
51.1345	16.6406	1.1402
51.1628	16.7969	1.1455
51.1910	17.1875	1.1588
51.2193	16.4844	1.1348
51.2476	17.0313	1.1535
51.2758	20.2344	1.2573
51.3041	15.3906	1.0965
51.3324	17.7344	1.1771
51.3606	15.2344	1.0910
51.3889	16.0156	1.1186
51.4172	15.0781	1.0853
51.4454	16.3281	1.1294
51.4737	16.3281	1.1294
51.5020	17.2656	1.1614
51.5302	15.8594	1.1131
51.5585	16.4063	1.1321
51.5868	18.4375	1.2002
51.6150	16.0156	1.1186
51.6433	15.9375	1.1158
51.6716	16.4063	1.1321
51.6998	14.0625	1.0482
51.7281	14.5313	1.0655
51.7564	16.1719	1.1240
51.7846	15.7031	1.1076
51.8129	15.1563	1.0882
51.8412	17.7344	1.1771
51.8694	16.9531	1.1509
51.8977	14.6094	1.0683
51.9260	16.0938	1.1213
51.9542	17.7344	1.1771
51.9825	15.6250	1.1049
52.0107	18.8281	1.2128
52.0390	15.4688	1.0993
52.0673	16.3281	1.1294
52.0955	16.2500	1.1267
52.1238	16.0156	1.1186
52.1521	15.4688	1.0993
52.1803	16.4844	1.1348
52.2086	14.2969	1.0569
52.2369	19.6094	1.2377
52.2651	17.5000	1.1693
52.2934	19.7656	1.2427
52.3217	16.8750	1.1482
52.3499	15.3125	1.0938
52.3782	14.7656	1.0740
52.4065	15.3906	1.0965
52.4347	17.4219	1.1667
52.4630	15.3906	1.0965
52.4913	16.0156	1.1186
52.5195	16.0156	1.1186
52.5478	15.5469	1.1021
52.5761	15.7813	1.1104
52.6043	14.8438	1.0769
52.6326	16.8750	1.1482
52.6609	16.8750	1.1482
52.6891	15.7813	1.1104
52.7174	14.4531	1.0626
52.7457	17.3438	1.1640
52.7739	17.1094	1.1561
52.8022	18.2031	1.1925
52.8305	15.3906	1.0965
52.8587	15.2344	1.0910
52.8870	15.4688	1.0993
52.9152	16.7969	1.1455
52.9435	17.7344	1.1771
52.9718	14.9219	1.0797
53.0000	17.7344	1.1771
53.0283	15.9375	1.1158
53.0566	16.4063	1.1321
53.0848	17.5781	1.1719
53.1131	17.2656	1.1614
53.1414	17.5781	1.1719
53.1696	16.0938	1.1213
53.1979	17.3438	1.1640
53.2262	15.3906	1.0965
53.2544	15.6250	1.1049
53.2827	14.7656	1.0740
53.3110	15.0781	1.0853
53.3392	18.3594	1.1976
53.3675	15.6250	1.1049
53.3958	15.7031	1.1076
53.4240	16.0938	1.1213
53.4523	15.3125	1.0938
53.4806	14.6094	1.0683
53.5088	16.5625	1.1375
53.5371	14.7656	1.0740
53.5654	15.1563	1.0882
53.5936	16.4844	1.1348
53.6219	16.8750	1.1482
53.6502	16.5625	1.1375
53.6784	15.1563	1.0882
53.7067	16.2500	1.1267
53.7349	16.6406	1.1402
53.7632	13.9844	1.0452
53.7915	14.5313	1.0655
53.8197	15.8594	1.1131
53.8480	16.8750	1.1482
53.8763	15.4688	1.0993
53.9045	13.5156	1.0276
53.9328	16.0156	1.1186
53.9611	13.9063	1.0423
53.9893	16.8750	1.1482
54.0176	15.9375	1.1158
54.0459	17.4219	1.1667
54.0741	17.1094	1.1561
54.1024	14.6094	1.0683
54.1307	16.3281	1.1294
54.1589	15.0781	1.0853
54.1872	15.7813	1.1104
54.2155	15.3125	1.0938
54.2437	15.3125	1.0938
54.2720	18.0469	1.1874
54.3003	16.7969	1.1455
54.3285	17.4219	1.1667
54.3568	13.5938	1.0305
54.3851	16.4844	1.1348
54.4133	15.3125	1.0938
54.4416	17.4219	1.1667
54.4699	16.7188	1.1429
54.4981	16.9531	1.1509
54.5264	16.4063	1.1321
54.5546	17.5781	1.1719
54.5829	15.0000	1.0825
54.6112	17.5781	1.1719
54.6394	16.7969	1.1455
54.6677	17.8125	1.1797
54.6960	18.9844	1.2178
54.7242	14.7656	1.0740
54.7525	17.4219	1.1667
54.7808	16.0156	1.1186
54.8090	13.3594	1.0216
54.8373	14.2969	1.0569
54.8656	15.8594	1.1131
54.8938	16.2500	1.1267
54.9221	16.7969	1.1455
54.9504	15.3125	1.0938
54.9786	16.5625	1.1375
55.0069	14.7656	1.0740
55.0352	16.0938	1.1213
55.0634	15.3906	1.0965
55.0917	19.4531	1.2328
55.1200	17.8906	1.1822
55.1482	16.3281	1.1294
55.1765	17.0313	1.1535
55.2048	14.0625	1.0482
55.2330	15.0000	1.0825
55.2613	16.7188	1.1429
55.2896	16.3281	1.1294
55.3178	16.7188	1.1429
55.3461	16.4063	1.1321
55.3744	17.7344	1.1771
55.4026	16.9531	1.1509
55.4309	16.3281	1.1294
55.4591	17.2656	1.1614
55.4874	16.2500	1.1267
55.5157	17.5000	1.1693
55.5439	16.3281	1.1294
55.5722	15.7031	1.1076
55.6005	19.0625	1.2204
55.6287	17.1875	1.1588
55.6570	18.0469	1.1874
55.6853	16.5625	1.1375
55.7135	18.1250	1.1900
55.7418	19.2969	1.2278
55.7701	18.5156	1.2027
55.7983	17.1094	1.1561
55.8266	18.5156	1.2027
55.8549	17.2656	1.1614
55.8831	17.9688	1.1848
55.9114	17.1094	1.1561
55.9397	19.3750	1.2303
55.9679	17.7344	1.1771
55.9962	17.5781	1.1719
56.0245	18.4375	1.2002
56.0527	17.4219	1.1667
56.0810	19.4531	1.2328
56.1093	18.7500	1.2103
56.1375	18.2813	1.1951
56.1658	18.9063	1.2153
56.1941	18.9063	1.2153
56.2223	19.6875	1.2402
56.2506	18.3594	1.1976
56.2788	19.2969	1.2278
56.3071	19.2188	1.2253
56.3354	20.3125	1.2597
56.3636	20.2344	1.2573
56.3919	20.7813	1.2742
56.4202	23.4375	1.3532
56.4484	21.5625	1.2979
56.4767	22.6563	1.3304
56.5050	21.9531	1.3096
56.5332	21.2500	1.2885
56.5615	25.1563	1.4019
56.5898	23.6719	1.3599
56.6180	26.9531	1.4511
56.6463	23.1250	1.3441
56.6746	24.6094	1.3866
56.7028	25.6250	1.4149
56.7311	28.0469	1.4803
56.7594	26.9531	1.4511
56.7876	28.5938	1.4946
56.8159	30.1563	1.5349
56.8442	33.6719	1.6219
56.8724	36.2500	1.6829
56.9007	39.2188	1.7504
56.9290	40.2344	1.7729
56.9572	39.3750	1.7539
56.9855	42.4219	1.8205
57.0138	46.4063	1.9041
57.0420	53.5156	2.0447
57.0703	51.1719	1.9995
57.0986	54.6875	2.0670
57.1268	59.2188	2.1509
57.1551	64.5313	2.2453
57.1833	68.9063	2.3202
57.2116	68.2813	2.3096
57.2399	75.1563	2.4231
57.2681	77.8906	2.4668
57.2964	79.2188	2.4878
57.3247	88.1250	2.6239
57.3529	89.8438	2.6493
57.3812	92.6563	2.6905
57.4095	96.9531	2.7522
57.4377	98.0469	2.7677
57.4660	100.1563	2.7973
57.4943	106.4063	2.8832
57.5225	105.8594	2.8758
57.5508	104.2188	2.8534
57.5791	106.2500	2.8811
57.6073	103.6719	2.8459
57.6356	96.9531	2.7522
57.6639	89.4531	2.6436
57.6921	83.9844	2.5615
57.7204	85.3906	2.5829
57.7487	74.1406	2.4067
57.7769	66.3281	2.2764
57.8052	60.6250	2.1763
57.8335	55.7031	2.0861
57.8617	48.7500	1.9516
57.8900	41.5625	1.8020
57.9183	41.1719	1.7935
57.9465	40.0000	1.7678
57.9748	39.6094	1.7591
58.0030	32.6563	1.5973
58.0313	32.8906	1.6030
58.0596	31.0938	1.5586
58.0878	31.7188	1.5742
58.1161	28.3594	1.4885
58.1444	27.1094	1.4553
58.1726	25.0000	1.3975
58.2009	25.7031	1.4171
58.2292	24.7656	1.3910
58.2574	24.7656	1.3910
58.2857	25.1563	1.4019
58.3140	23.4375	1.3532
58.3422	21.7969	1.3049
58.3705	19.2969	1.2278
58.3988	22.0313	1.3119
58.4270	22.0313	1.3119
58.4553	20.0000	1.2500
58.4836	22.0313	1.3119
58.5118	19.6094	1.2377
58.5401	20.0000	1.2500
58.5684	18.7500	1.2103
58.5966	21.0156	1.2813
58.6249	17.4219	1.1667
58.6532	20.8594	1.2766
58.6814	19.0625	1.2204
58.7097	20.7031	1.2718
58.7380	17.9688	1.1848
58.7662	21.5625	1.2979
58.7945	18.6719	1.2078
58.8227	17.0313	1.1535
58.8510	17.8906	1.1822
58.8793	20.3125	1.2597
58.9075	16.7188	1.1429
58.9358	16.0938	1.1213
58.9641	17.5000	1.1693
58.9923	17.1094	1.1561
59.0206	15.3125	1.0938
59.0489	17.8125	1.1797
59.0771	16.3281	1.1294
59.1054	16.0156	1.1186
59.1337	16.0156	1.1186
59.1619	15.8594	1.1131
59.1902	16.8750	1.1482
59.2185	17.4219	1.1667
59.2467	16.3281	1.1294
59.2750	18.9844	1.2178
59.3033	18.8281	1.2128
59.3315	16.8750	1.1482
59.3598	15.3906	1.0965
59.3881	16.7188	1.1429
59.4163	16.4844	1.1348
59.4446	16.7969	1.1455
59.4729	17.5000	1.1693
59.5011	17.5781	1.1719
59.5294	16.8750	1.1482
59.5577	18.2813	1.1951
59.5859	17.5781	1.1719
59.6142	12.8906	1.0035
59.6425	15.9375	1.1158
59.6707	15.5469	1.1021
59.6990	15.7813	1.1104
59.7272	15.3906	1.0965
59.7555	15.8594	1.1131
59.7838	15.2344	1.0910
59.8120	17.3438	1.1640
59.8403	17.2656	1.1614
59.8686	15.4688	1.0993
59.8968	15.9375	1.1158
59.9251	16.9531	1.1509
59.9534	16.4063	1.1321
59.9816	18.6719	1.2078
60.0099	16.8750	1.1482
60.0382	17.1875	1.1588
60.0664	16.0938	1.1213
60.0947	17.1875	1.1588
60.1230	18.6719	1.2078
60.1512	17.1875	1.1588
60.1795	17.9688	1.1848
60.2078	16.4063	1.1321
60.2360	16.8750	1.1482
60.2643	18.9063	1.2153
60.2926	16.3281	1.1294
60.3208	16.1719	1.1240
60.3491	17.5000	1.1693
60.3774	17.0313	1.1535
60.4056	17.1094	1.1561
60.4339	16.1719	1.1240
60.4622	16.7188	1.1429
60.4904	17.1875	1.1588
60.5187	15.4688	1.0993
60.5469	15.3125	1.0938
60.5752	17.5781	1.1719
60.6035	18.1250	1.1900
60.6317	19.5313	1.2353
60.6600	16.8750	1.1482
60.6883	19.2969	1.2278
60.7165	17.2656	1.1614
60.7448	17.7344	1.1771
60.7731	15.4688	1.0993
60.8013	15.7813	1.1104
60.8296	17.5781	1.1719
60.8579	17.4219	1.1667
60.8861	15.4688	1.0993
60.9144	18.1250	1.1900
60.9427	16.1719	1.1240
60.9709	17.4219	1.1667
60.9992	15.2344	1.0910
61.0275	16.9531	1.1509
61.0557	18.2813	1.1951
61.0840	15.8594	1.1131
61.1123	17.1875	1.1588
61.1405	17.4219	1.1667
61.1688	15.4688	1.0993
61.1971	16.3281	1.1294
61.2253	15.4688	1.0993
61.2536	16.7188	1.1429
61.2819	16.2500	1.1267
61.3101	16.0938	1.1213
61.3384	17.8125	1.1797
61.3667	17.1094	1.1561
61.3949	13.5156	1.0276
61.4232	16.0938	1.1213
61.4514	17.7344	1.1771
61.4797	15.6250	1.1049
61.5080	13.9063	1.0423
61.5362	15.0000	1.0825
61.5645	14.5313	1.0655
61.5928	15.7813	1.1104
61.6210	16.9531	1.1509
61.6493	17.1875	1.1588
61.6776	16.7188	1.1429
61.7058	18.3594	1.1976
61.7341	14.7656	1.0740
61.7624	16.6406	1.1402
61.7906	16.4844	1.1348
61.8189	15.3906	1.0965
61.8472	16.7188	1.1429
61.8754	15.3125	1.0938
61.9037	15.6250	1.1049
61.9320	13.5938	1.0305
61.9602	14.2969	1.0569
61.9885	16.8750	1.1482
62.0168	15.3906	1.0965
62.0450	16.5625	1.1375
62.0733	15.7813	1.1104
62.1016	17.7344	1.1771
62.1298	14.2188	1.0540
62.1581	15.9375	1.1158
62.1864	15.7031	1.1076
62.2146	16.3281	1.1294
62.2429	15.3125	1.0938
62.2711	18.1250	1.1900
62.2994	16.2500	1.1267
62.3277	16.0156	1.1186
62.3559	14.6875	1.0712
62.3842	18.2031	1.1925
62.4125	17.1875	1.1588
62.4407	16.8750	1.1482
62.4690	15.8594	1.1131
62.4973	15.7031	1.1076
62.5255	17.2656	1.1614
62.5538	16.1719	1.1240
62.5821	16.0938	1.1213
62.6103	15.0781	1.0853
62.6386	15.6250	1.1049
62.6669	15.8594	1.1131
62.6951	15.5469	1.1021
62.7234	15.8594	1.1131
62.7517	14.6875	1.0712
62.7799	15.5469	1.1021
62.8082	14.6875	1.0712
62.8365	13.7500	1.0364
62.8647	15.4688	1.0993
62.8930	15.8594	1.1131
62.9213	15.3125	1.0938
62.9495	17.8125	1.1797
62.9778	15.0000	1.0825
63.0061	15.3906	1.0965
63.0343	16.9531	1.1509
63.0626	15.9375	1.1158
63.0908	15.2344	1.0910
63.1191	16.3281	1.1294
63.1474	15.0000	1.0825
63.1756	17.2656	1.1614
63.2039	15.8594	1.1131
63.2322	16.1538	1.1147
63.2604	14.8462	1.0686
63.2887	17.0000	1.1435
63.3170	16.7692	1.1358
63.3452	16.7692	1.1358
63.3735	15.0000	1.0742
63.4018	14.0769	1.0406
63.4300	15.1538	1.0797
63.4583	14.3846	1.0519
63.4866	17.7692	1.1691
63.5148	14.9231	1.0714
63.5431	15.2308	1.0824
63.5714	14.2308	1.0463
63.5996	15.7692	1.1014
63.6279	15.4615	1.0906
63.6562	15.0000	1.0742
63.6844	15.1538	1.0797
63.7127	16.6923	1.1331
63.7410	15.6154	1.0960
63.7692	17.8462	1.1717
63.7975	16.6923	1.1331
63.8258	15.5385	1.0933
63.8540	15.5385	1.0933
63.8823	16.0000	1.1094
63.9106	15.4615	1.0906
63.9388	16.3846	1.1227
63.9671	15.6923	1.0987
63.9953	17.0000	1.1435
64.0236	15.6154	1.0960
64.0519	14.0769	1.0406
64.0801	18.5385	1.1942
64.1084	14.0000	1.0377
64.1367	15.4615	1.0906
64.1649	17.3077	1.1538
64.1932	15.2308	1.0824
64.2215	16.1538	1.1147
64.2497	16.0000	1.1094
64.2780	15.0769	1.0769
64.3063	16.3077	1.1200
64.3345	16.0000	1.1094
64.3628	15.9231	1.1067
64.3911	16.5385	1.1279
64.4193	16.6154	1.1305
64.4476	17.0000	1.1435
64.4759	16.6154	1.1305
64.5041	18.1538	1.1817
64.5324	14.8462	1.0686
64.5607	16.0769	1.1121
64.5889	16.6154	1.1305
64.6172	16.8462	1.1384
64.6455	16.2308	1.1174
64.6737	15.2308	1.0824
64.7020	16.7692	1.1358
64.7303	15.5385	1.0933
64.7585	17.6923	1.1666
64.7868	16.4615	1.1253
64.8150	15.8462	1.1041
64.8433	15.9231	1.1067
64.8716	16.3077	1.1200
64.8998	17.4615	1.1590
64.9281	15.6923	1.0987
64.9564	15.1538	1.0797
64.9846	16.7692	1.1358
65.0129	17.5385	1.1615
65.0412	16.1538	1.1147
65.0694	16.5672	1.1119
65.0977	16.1194	1.0968
65.1260	15.7463	1.0840
65.1542	15.5970	1.0789
65.1825	15.0746	1.0606
65.2108	14.7761	1.0501
65.2390	16.3433	1.1044
65.2673	16.5672	1.1119
65.2956	13.5075	1.0040
65.3238	16.1940	1.0993
65.3521	15.5970	1.0789
65.3804	14.6269	1.0448
65.4086	14.3382	1.0268
65.4369	14.7794	1.0425
65.4652	14.6324	1.0373
65.4934	16.1029	1.0881
65.5217	16.1029	1.0881
65.5500	18.0882	1.1533
65.5782	16.0294	1.0856
65.6065	14.6324	1.0373
65.6348	16.8382	1.1127
65.6630	14.8529	1.0450
65.6913	15.5882	1.0706
65.7195	14.9265	1.0476
65.7478	14.4853	1.0320
65.7761	15.8824	1.0807
65.8043	15.6618	1.0731
65.8326	15.8088	1.0782
65.8609	15.9559	1.0832
65.8891	14.8529	1.0450
65.9174	15.9559	1.0832
65.9457	14.2647	1.0241
65.9739	14.8529	1.0450
66.0022	15.2941	1.0605
66.0305	16.3235	1.0956
66.0587	16.9118	1.1151
66.0870	16.9118	1.1151
66.1153	15.8824	1.0807
66.1435	14.9265	1.0476
66.1718	17.5000	1.1344
66.2001	14.3478	1.0197
66.2283	17.8261	1.1365
66.2566	15.9420	1.0748
66.2849	15.1449	1.0476
66.3131	16.1594	1.0821
66.3414	14.4928	1.0248
66.3697	14.1304	1.0119
66.3979	15.7246	1.0675
66.4262	16.1594	1.0821
66.4545	16.3043	1.0870
66.4827	16.0145	1.0773
66.5110	16.1429	1.0738
66.5392	14.9286	1.0326
66.5675	16.7143	1.0926
66.5958	16.7143	1.0926
66.6240	14.5000	1.0177
66.6523	17.0000	1.1019
66.6806	15.5714	1.0546
66.7088	17.1429	1.1066
66.7371	16.9286	1.0996
66.7654	17.0714	1.1043
66.7936	17.4286	1.1157
66.8219	14.3571	1.0127
66.8502	14.3571	1.0127
66.8784	15.7857	1.0619
66.9067	17.0000	1.1019
66.9350	14.7857	1.0277
66.9632	14.9286	1.0326
66.9915	15.5714	1.0546
67.0198	15.8571	1.0643
67.0480	17.7143	1.1249
67.0763	15.7857	1.0619
67.1046	16.7143	1.0926
67.1328	15.3571	1.0473
67.1611	15.7857	1.0619
67.1894	15.2857	1.0449
67.2176	16.7143	1.0926
67.2459	16.1429	1.0738
67.2742	15.0714	1.0376
67.3024	17.2143	1.1089
67.3307	17.7143	1.1249
67.3589	17.2143	1.1089
67.3872	17.2857	1.1112
67.4155	17.5714	1.1203
67.4437	14.6429	1.0227
67.4720	16.5714	1.0880
67.5003	15.6429	1.0570
67.5285	14.1429	1.0051
67.5568	13.8571	0.9949
67.5851	17.2857	1.1112
67.6133	17.4306	1.1002
67.6416	15.6944	1.0440
67.6699	14.5833	1.0063
67.6981	17.4306	1.1002
67.7264	15.5556	1.0393
67.7547	15.4167	1.0347
67.7829	15.2083	1.0277
67.8112	16.5278	1.0713
67.8395	18.4722	1.1326
67.8677	16.8750	1.0825
67.8960	15.9028	1.0509
67.9243	16.1806	1.0600
67.9525	16.7361	1.0781
67.9808	15.7639	1.0463
68.0091	14.8611	1.0159
68.0373	14.1667	0.9919
68.0656	15.6250	1.0417
68.0939	15.5556	1.0393
68.1221	17.5000	1.1024
68.1504	15.0694	1.0230
68.1787	16.5972	1.0736
68.2069	16.0417	1.0555
68.2352	13.8194	0.9796
68.2634	16.5972	1.0736
68.2917	16.9444	1.0848
68.3200	15.1389	1.0253
68.3482	14.4444	1.0015
68.3765	16.3889	1.0668
68.4048	15.4167	1.0347
68.4330	16.9444	1.0848
68.4613	16.0417	1.0555
68.4896	14.2361	0.9943
68.5178	17.2603	1.0873
68.5461	16.3014	1.0567
68.5744	17.8767	1.1065
68.6026	17.5342	1.0959
68.6309	15.1370	1.0182
68.6592	16.0274	1.0477
68.6874	18.4247	1.1234
68.7157	19.1216	1.1367
68.7440	15.2027	1.0135
68.7722	16.7568	1.0641
68.8005	14.7973	0.9999
68.8288	13.9865	0.9721
68.8570	17.6351	1.0916
68.8853	16.4865	1.0554
68.9136	17.2973	1.0811
68.9418	16.8919	1.0683
68.9701	17.5000	1.0874
68.9984	17.2297	1.0790
69.0266	17.0946	1.0747
69.0549	17.9730	1.1020
69.0831	16.5541	1.0576
69.1114	17.4324	1.0853
69.1397	17.6351	1.0916
69.1679	16.5541	1.0576
69.1962	17.4324	1.0853
69.2245	16.2162	1.0468
69.2527	16.8243	1.0662
69.2810	17.1622	1.0768
69.3093	16.9595	1.0705
69.3375	17.9054	1.0999
69.3658	16.6216	1.0598
69.3941	15.7432	1.0314
69.4223	16.1486	1.0446
69.4506	17.0270	1.0726
69.4789	16.8243	1.0662
69.5071	17.2297	1.0790
69.5354	18.1757	1.1082
69.5637	17.1622	1.0768
69.5919	15.6081	1.0269
69.6202	14.1216	0.9768
69.6485	16.9595	1.0705
69.6767	18.5333	1.1116
69.7050	16.4667	1.0477
69.7333	16.4000	1.0456
69.7615	18.5333	1.1116
69.7898	19.0667	1.1274
69.8181	19.6667	1.1450
69.8463	16.7333	1.0562
69.8746	18.8000	1.1195
69.9028	17.1333	1.0687
69.9311	19.6667	1.1450
69.9594	16.5333	1.0499
69.9876	18.5333	1.1116
70.0159	19.7333	1.1470
70.0442	19.4667	1.1392
70.0724	18.9333	1.1235
70.1007	20.2000	1.1605
70.1290	19.7333	1.1470
70.1572	19.3333	1.1353
70.1855	18.0000	1.0954
70.2138	18.7333	1.1175
70.2420	17.7333	1.0873
70.2703	18.4000	1.1075
70.2986	18.3333	1.1055
70.3268	19.8000	1.1489
70.3551	20.2000	1.1605
70.3834	17.6000	1.0832
70.4116	19.2667	1.1333
70.4399	18.8000	1.1195
70.4682	20.2667	1.1624
70.4964	17.7333	1.0873
70.5247	21.3333	1.1926
70.5530	20.3333	1.1643
70.5812	19.4000	1.1372
70.6095	24.5333	1.2789
70.6378	18.2000	1.1015
70.6660	21.3333	1.1926
70.6943	20.2667	1.1624
70.7226	20.6000	1.1719
70.7508	22.6667	1.2293
70.7791	21.0667	1.1851
70.8073	20.2000	1.1605
70.8356	22.4675	1.2079
70.8639	22.5974	1.2113
70.8921	22.1795	1.1924
70.9204	24.6154	1.2561
70.9487	23.5897	1.2297
70.9769	23.2692	1.2213
71.0052	25.1923	1.2708
71.0335	23.7821	1.2347
71.0617	24.6154	1.2561
71.0900	27.4359	1.3262
71.1183	28.3333	1.3477
71.1465	25.9615	1.2900
71.1748	29.4231	1.3734
71.2031	28.1410	1.3431
71.2313	30.4487	1.3971
71.2596	30.2564	1.3927
71.2879	33.3974	1.4632
71.3161	32.6923	1.4476
71.3444	35.0000	1.4979
71.3727	32.3077	1.4391
71.4009	36.4744	1.5291
71.4292	39.2308	1.5858
71.4575	42.1154	1.6431
71.4857	44.8718	1.6960
71.5140	45.9615	1.7165
71.5423	46.6026	1.7284
71.5705	49.2949	1.7776
71.5988	54.6795	1.8722
71.6270	59.2308	1.9485
71.6553	61.3462	1.9830
71.6836	59.8718	1.9591
71.7118	65.0000	2.0412
71.7401	66.8590	2.0702
71.7684	73.6538	2.1729
71.7966	76.7308	2.2178
71.8249	80.3205	2.2691
71.8532	88.2692	2.3787
71.8814	91.3462	2.4198
71.9097	94.0385	2.4552
71.9380	103.1410	2.5713
71.9662	104.8101	2.5756
71.9945	111.7500	2.6428
72.0228	117.0000	2.7042
72.0510	127.5625	2.8236
72.0793	128.3125	2.8319
72.1076	133.5000	2.8886
72.1358	141.4375	2.9732
72.1641	149.7500	3.0593
72.1924	155.2500	3.1150
72.2206	164.3750	3.2052
72.2489	171.7500	3.2763
72.2772	168.8750	3.2488
72.3054	166.6875	3.2277
72.3337	155.3125	3.1156
72.3620	147.2500	3.0337
72.3902	145.4375	3.0149
72.4185	139.9375	2.9574
72.4468	132.1250	2.8736
72.4750	124.3125	2.7874
72.5033	119.8125	2.7365
72.5315	107.3750	2.5905
72.5598	100.7500	2.5094
72.5881	91.0625	2.3857
72.6163	87.8750	2.3435
72.6446	76.5625	2.1875
72.6729	72.6875	2.1314
72.7011	66.0000	2.0310
72.7294	58.2500	1.9080
72.7577	52.1250	1.8049
72.7859	52.1875	1.8060
72.8142	48.6250	1.7433
72.8425	46.8125	1.7105
72.8707	40.1250	1.5836
72.8990	42.3750	1.6274
72.9273	38.0625	1.5424
72.9555	39.1875	1.5650
72.9838	33.7500	1.4524
73.0121	31.6875	1.4073
73.0403	30.3750	1.3778
73.0686	30.9375	1.3905
73.0969	31.6875	1.4073
73.1251	31.7901	1.4008
73.1534	29.3210	1.3453
73.1817	25.6173	1.2575
73.2099	27.4074	1.3007
73.2382	26.6049	1.2815
73.2665	26.2346	1.2726
73.2947	24.8765	1.2392
73.3230	24.7531	1.2361
73.3512	24.1358	1.2206
73.3795	23.2716	1.1985
73.4078	23.0247	1.1922
73.4360	21.4198	1.1499
73.4643	23.0864	1.1938
73.4926	22.0988	1.1680
73.5208	22.8395	1.1874
73.5491	21.6667	1.1565
73.5774	22.7778	1.1858
73.6056	22.3457	1.1745
73.6339	23.2099	1.1970
73.6622	21.8519	1.1614
73.6904	20.0000	1.1111
73.7187	18.5802	1.0709
73.7470	19.6914	1.1025
73.7752	21.7901	1.1598
73.8035	20.3086	1.1197
73.8318	17.9012	1.0512
73.8600	17.7160	1.0457
73.8883	19.1975	1.0886
73.9166	18.2716	1.0620
73.9448	22.8395	1.1874
73.9731	20.4321	1.1230
74.0014	20.3704	1.1214
74.0296	17.5926	1.0421
74.0579	21.1728	1.1432
74.0862	18.8272	1.0780
74.1144	19.3210	1.0921
74.1427	18.0864	1.0566
74.1709	18.1481	1.0584
74.1992	18.4940	1.0555
74.2275	19.9398	1.0960
74.2557	15.9036	0.9788
74.2840	17.6786	1.0258
74.3123	17.3810	1.0171
74.3405	19.5238	1.0780
74.3688	17.3810	1.0171
74.3971	18.7500	1.0564
74.4253	17.4405	1.0189
74.4536	18.3929	1.0463
74.4819	17.5595	1.0224
74.5101	17.4405	1.0189
74.5384	18.0357	1.0361
74.5667	16.4881	0.9907
74.5949	18.0357	1.0361
74.6232	17.2024	1.0119
74.6515	16.2500	0.9835
74.6797	18.4524	1.0480
74.7080	18.9881	1.0631
74.7363	16.3095	0.9853
74.7645	17.7976	1.0293
74.7928	20.0595	1.0927
74.8211	16.6667	0.9960
74.8493	17.7381	1.0275
74.8776	17.9762	1.0344
74.9059	16.0714	0.9781
74.9341	19.0476	1.0648
74.9624	17.6190	1.0241
74.9907	18.4524	1.0480
75.0189	17.9762	1.0344
75.0472	15.2976	0.9542
75.0754	17.7976	1.0293
75.1037	19.3452	1.0731
75.1320	17.7976	1.0293
75.1602	17.2024	1.0119
75.1885	17.0833	1.0084
75.2168	15.8929	0.9726
75.2450	16.3690	0.9871
75.2733	16.8824	0.9965
75.3016	17.0000	1.0000
75.3298	16.8235	0.9948
75.3581	17.2941	1.0086
75.3864	17.0000	1.0000
75.4146	14.9412	0.9375
75.4429	18.2353	1.0357
75.4712	18.1765	1.0340
75.4994	19.4706	1.0702
75.5277	17.6471	1.0189
75.5560	19.2941	1.0653
75.5842	17.4706	1.0137
75.6125	16.1176	0.9737
75.6408	17.1176	1.0035
75.6690	16.6471	0.9896
75.6973	17.5882	1.0172
75.7256	16.7059	0.9913
75.7538	17.0588	1.0017
75.7821	15.7647	0.9630
75.8104	18.5294	1.0440
75.8386	16.7647	0.9931
75.8669	16.8235	0.9948
75.8951	16.2941	0.9790
75.9234	14.8235	0.9338
75.9517	18.5294	1.0440
75.9799	17.0000	1.0000
76.0082	15.4706	0.9540
76.0365	17.5294	1.0155
76.0647	17.8824	1.0256
76.0930	16.5294	0.9861
76.1213	16.0000	0.9701
76.1495	18.2941	1.0374
76.1778	15.3529	0.9503
76.2061	16.0588	0.9719
76.2343	17.4706	1.0137
76.2626	17.2353	1.0069
76.2909	18.0000	1.0290
76.3191	17.5882	1.0172
76.3474	17.4118	1.0120
76.3757	16.6279	0.9832
76.4039	18.6628	1.0417
76.4322	17.9651	1.0220
76.4605	16.9186	0.9918
76.4887	15.8140	0.9589
76.5170	16.6860	0.9849
76.5453	15.0581	0.9357
76.5735	16.1047	0.9676
76.6018	15.9091	0.9508
76.6301	17.0455	0.9841
76.6583	16.2500	0.9609
76.6866	15.5682	0.9405
76.7149	16.5341	0.9692
76.7431	17.4432	0.9955
76.7714	18.2955	1.0196
76.7996	16.4773	0.9676
76.8279	16.7045	0.9742
76.8562	16.5909	0.9709
76.8844	15.5114	0.9388
76.9127	16.3068	0.9626
76.9410	16.1364	0.9575
76.9692	16.3068	0.9626
76.9975	16.1932	0.9592
77.0258	17.6136	1.0004
77.0540	16.5909	0.9709
77.0823	15.3977	0.9353
77.1106	16.8750	0.9792
77.1388	16.3068	0.9626
77.1671	18.6364	1.0290
77.1954	16.8750	0.9792
77.2236	16.9318	0.9808
77.2519	15.2841	0.9319
77.2802	16.1364	0.9575
77.3084	17.1591	0.9874
77.3367	16.2500	0.9609
77.3650	16.3068	0.9626
77.3932	16.5909	0.9709
77.4215	15.6250	0.9422
77.4498	16.3636	0.9642
77.4780	16.8539	0.9731
77.5063	16.8539	0.9731
77.5346	16.9663	0.9763
77.5628	15.4494	0.9316
77.5911	17.1348	0.9811
77.6193	17.6404	0.9955
77.6476	16.1798	0.9534
77.6759	16.2921	0.9567
77.7041	15.7865	0.9417
77.7324	16.7222	0.9639
77.7607	15.8889	0.9395
77.7889	17.6111	0.9891
77.8172	15.3889	0.9246
77.8455	16.3333	0.9526
77.8737	16.8333	0.9670
77.9020	16.5556	0.9590
77.9303	16.6111	0.9606
77.9585	16.6667	0.9623
77.9868	16.1667	0.9477
78.0151	15.5000	0.9280
78.0433	15.5556	0.9296
78.0716	16.2778	0.9510
78.0999	17.6111	0.9891
78.1281	17.1111	0.9750
78.1564	16.3333	0.9526
78.1847	17.0000	0.9718
78.2129	16.5556	0.9590
78.2412	16.3333	0.9526
78.2695	18.4444	1.0123
78.2977	16.0556	0.9444
78.3260	15.0556	0.9146
78.3543	15.6111	0.9313
78.3825	15.6111	0.9313
78.4108	17.8889	0.9969
78.4390	16.5556	0.9590
78.4673	15.9444	0.9412
78.4956	16.1667	0.9477
78.5238	17.8333	0.9954
78.5521	16.6667	0.9623
78.5804	15.6667	0.9329
78.6086	16.5000	0.9574
78.6369	16.3333	0.9526
78.6652	16.2222	0.9493
78.6934	12.5556	0.8352
78.7217	17.6667	0.9907
78.7500	16.1667	0.9477
78.7782	16.2222	0.9493
78.8065	17.4444	0.9844
78.8348	15.6111	0.9313
78.8630	17.3333	0.9813
78.8913	16.4286	0.9501
78.9196	17.0330	0.9674
78.9478	17.0879	0.9690
78.9761	16.9780	0.9658
79.0044	16.2637	0.9453
79.0326	17.1978	0.9721
79.0609	16.5385	0.9533
79.0892	16.6484	0.9564
79.1174	18.1868	0.9996
79.1457	15.2198	0.9145
79.1740	15.6593	0.9276
79.2022	16.8132	0.9611
79.2305	17.2527	0.9736
79.2588	15.8791	0.9341
79.2870	16.7033	0.9580
79.3153	16.4286	0.9501
79.3435	17.1429	0.9705
79.3718	16.5385	0.9533
79.4001	16.0989	0.9405
79.4283	16.4286	0.9501
79.4566	16.6484	0.9564
79.4849	15.6593	0.9276
79.5131	17.9670	0.9936
79.5414	14.9451	0.9062
79.5697	17.5824	0.9829
79.5979	16.0989	0.9405
79.6262	16.7582	0.9596
79.6545	16.5934	0.9548
79.6827	16.2366	0.9343
79.7110	17.0430	0.9572
79.7393	16.7742	0.9497
79.7675	15.0538	0.8996
79.7958	15.4301	0.9108
79.8241	14.2473	0.8752
79.8523	17.8495	0.9796
79.8806	17.7419	0.9767
79.9089	15.4839	0.9124
79.9371	17.0968	0.9587
79.9654	15.9140	0.9250
79.9937	15.9140	0.9250
80.0219	16.2903	0.9359
80.0502	15.5851	0.9105
80.0785	15.5319	0.9089
80.1067	16.4362	0.9350
80.1350	16.7021	0.9426
80.1632	15.0000	0.8932
80.1915	15.6915	0.9136
80.2198	17.1277	0.9545
80.2480	15.6383	0.9120
80.2763	17.1277	0.9545
80.3046	16.4362	0.9350
80.3328	17.1277	0.9545
80.3611	15.7447	0.9151
80.3894	16.6489	0.9411
80.4176	16.4894	0.9365
80.4459	15.4787	0.9074
80.4742	17.5532	0.9663
80.5024	16.4362	0.9350
80.5307	17.7660	0.9721
80.5590	17.5532	0.9663
80.5872	15.9043	0.9198
80.6155	16.2234	0.9289
80.6438	16.0638	0.9244
80.6720	15.8511	0.9182
80.7003	15.5319	0.9089
80.7286	15.9043	0.9198
80.7568	16.8421	0.9415
80.7851	16.5263	0.9326
80.8134	16.0526	0.9192
80.8416	16.4737	0.9311
80.8699	15.8947	0.9146
80.8982	15.9474	0.9162
80.9264	16.1053	0.9207
80.9547	14.3684	0.8696
80.9830	17.3158	0.9547
81.0112	15.9474	0.9162
81.0395	14.8421	0.8838
81.0677	17.7895	0.9676
81.0960	17.1053	0.9488
81.1243	16.8421	0.9415
81.1525	15.8421	0.9131
81.1808	17.1579	0.9503
81.2091	17.6842	0.9648
81.2373	15.7895	0.9116
81.2656	17.0000	0.9459
81.2939	16.1053	0.9207
81.3221	15.6842	0.9086
81.3504	17.0000	0.9459
81.3787	17.4737	0.9590
81.4069	16.6842	0.9371
81.4352	16.1579	0.9222
81.4635	16.0526	0.9192
81.4917	17.3158	0.9547
81.5200	17.3158	0.9547
81.5483	17.0526	0.9474
81.5765	17.5263	0.9604
81.6048	16.2632	0.9252
81.6331	19.1053	1.0028
81.6613	18.9474	0.9986
81.6896	16.4211	0.9297
81.7179	16.5263	0.9326
81.7461	16.3158	0.9267
81.7744	18.5263	0.9875
81.8027	16.6316	0.9356
81.8309	18.1053	0.9762
81.8592	17.6042	0.9575
81.8874	15.5208	0.8991
81.9157	18.7500	0.9882
81.9440	17.4479	0.9533
81.9722	16.1979	0.9185
82.0005	17.6563	0.9590
82.0288	16.6146	0.9302
82.0570	18.0208	0.9688
82.0853	15.7813	0.9066
82.1136	16.1979	0.9185
82.1418	15.6250	0.9021
82.1701	17.3958	0.9519
82.1984	17.6563	0.9590
82.2266	16.4583	0.9259
82.2549	15.4688	0.8976
82.2832	15.8854	0.9096
82.3114	15.6771	0.9036
82.3397	18.1771	0.9730
82.3680	16.0714	0.9055
82.3962	14.5918	0.8628
82.4245	16.8878	0.9282
82.4528	15.7653	0.8969
82.4810	16.3265	0.9127
82.5093	17.2959	0.9394
82.5376	17.6531	0.9490
82.5658	17.0408	0.9324
82.5941	17.2449	0.9380
82.6224	16.9388	0.9296
82.6506	17.0408	0.9324
82.6789	17.6020	0.9477
82.7071	16.5306	0.9184
82.7354	18.3163	0.9667
82.7637	16.0714	0.9055
82.7919	17.6531	0.9490
82.8202	18.4694	0.9707
82.8485	16.5816	0.9198
82.8767	16.1224	0.9070
82.9050	16.5306	0.9184
82.9333	18.1122	0.9613
82.9615	16.8687	0.9230
82.9898	17.3232	0.9354
83.0181	17.2727	0.9340
83.0463	18.1313	0.9569
83.0746	16.5657	0.9147
83.1029	16.6667	0.9175
83.1311	16.2121	0.9049
83.1594	18.7374	0.9728
83.1877	17.4242	0.9381
83.2159	16.3131	0.9077
83.2442	19.3939	0.9897
83.2725	17.4242	0.9381
83.3007	16.1616	0.9035
83.3290	16.5152	0.9133
83.3573	18.3333	0.9623
83.3855	15.9091	0.8964
83.4138	17.8788	0.9502
83.4421	17.6768	0.9449
83.4703	15.8586	0.8950
83.4986	17.1500	0.9260
83.5269	18.7000	0.9670
83.5551	17.9500	0.9474
83.5834	17.8500	0.9447
83.6116	16.6500	0.9124
83.6399	16.6000	0.9110
83.6682	17.6500	0.9394
83.6964	16.1500	0.8986
83.7247	17.4000	0.9327
83.7530	15.9000	0.8916
83.7812	17.2000	0.9274
83.8095	17.1500	0.9260
83.8378	17.5000	0.9354
83.8660	18.8500	0.9708
83.8943	18.9000	0.9721
83.9226	19.0000	0.9747
83.9508	19.0000	0.9747
83.9791	16.6500	0.9124
84.0074	17.5500	0.9367
84.0356	17.9000	0.9460
84.0639	18.0500	0.9500
84.0922	16.0500	0.8958
84.1204	17.5500	0.9367
84.1487	20.6000	1.0149
84.1770	18.8500	0.9708
84.2052	20.2000	1.0050
84.2335	19.1000	0.9772
84.2618	20.0000	1.0000
84.2900	19.5500	0.9887
84.3183	18.3500	0.9579
84.3466	19.4000	0.9849
84.3748	20.3500	1.0087
84.4031	20.9500	1.0235
84.4313	16.9000	0.9192
84.4596	19.1000	0.9772
84.4879	19.4000	0.9849
84.5161	20.9500	1.0235
84.5444	21.3500	1.0332
84.5727	21.9500	1.0476
84.6009	21.1500	1.0283
84.6292	22.0000	1.0488
84.6575	21.0396	1.0206
84.6857	21.6832	1.0361
84.7140	21.0396	1.0206
84.7423	23.2178	1.0721
84.7705	23.8119	1.0857
84.7988	24.0594	1.0914
84.8271	24.1089	1.0925
84.8553	24.7030	1.1059
84.8836	24.6535	1.1047
84.9119	22.3762	1.0525
84.9401	25.7426	1.1289
84.9684	22.5248	1.0560
84.9967	25.3960	1.1213
85.0249	25.7921	1.1300
85.0532	26.7822	1.1515
85.0815	27.0297	1.1568
85.1097	28.3663	1.1850
85.1380	28.6634	1.1912
85.1663	27.8641	1.1630
85.1945	30.2913	1.2126
85.2228	31.1165	1.2290
85.2511	32.8155	1.2621
85.2793	31.3107	1.2329
85.3076	33.8350	1.2816
85.3358	35.6311	1.3152
85.3641	35.8252	1.3187
85.3924	37.8155	1.3549
85.4206	39.0291	1.3765
85.4489	41.0680	1.4119
85.4772	41.0194	1.4111
85.5054	38.4951	1.3670
85.5337	41.3107	1.4161
85.5620	42.2816	1.4327
85.5902	45.4854	1.4859
85.6185	46.6505	1.5049
85.6468	48.0097	1.5266
85.6750	49.9515	1.5572
85.7033	52.2330	1.5924
85.7316	56.6505	1.6583
85.7598	58.7379	1.6886
85.7881	64.3689	1.7677
85.8164	63.9904	1.7540
85.8446	60.0000	1.6984
85.8729	59.0865	1.6854
85.9012	56.3462	1.6459
85.9294	57.3558	1.6606
85.9577	53.6538	1.6061
85.9860	52.5481	1.5894
86.0142	51.2981	1.5704
86.0425	52.6923	1.5916
86.0708	49.4231	1.5415
86.0990	51.7788	1.5778
86.1273	49.6635	1.5452
86.1555	45.2404	1.4748
86.1838	40.7212	1.3992
86.2121	38.9904	1.3691
86.2403	37.5238	1.3367
86.2686	36.7143	1.3222
86.2969	32.9524	1.2527
86.3251	32.0952	1.2363
86.3534	30.5238	1.2056
86.3817	31.2381	1.2196
86.4099	28.4286	1.1635
86.4382	27.8571	1.1518
86.4665	26.2381	1.1178
86.4947	26.1429	1.1157
86.5230	25.6190	1.1045
86.5513	23.9048	1.0669
86.5795	25.4286	1.1004
86.6078	23.0952	1.0487
86.6361	25.2381	1.0963
86.6643	21.0952	1.0023
86.6926	22.8095	1.0422
86.7209	22.7619	1.0411
86.7491	22.0000	1.0235
86.7774	22.0952	1.0257
86.8057	20.6667	0.9920
86.8339	20.6190	0.9909
86.8622	19.6667	0.9677
86.8905	21.0000	1.0000
86.9187	21.2381	1.0057
86.9470	20.7143	0.9932
86.9752	22.3333	1.0313
87.0035	19.9524	0.9747
87.0318	17.0952	0.9023
87.0600	21.4762	1.0113
87.0883	19.1429	0.9548
87.1166	18.8571	0.9476
87.1448	18.4762	0.9380
87.1731	18.7619	0.9452
87.2014	21.3810	1.0090
87.2296	19.8571	0.9724
87.2579	18.7619	0.9452
87.2862	19.4286	0.9619
87.3144	19.4762	0.9630
87.3427	20.8491	0.9917
87.3710	17.8774	0.9183
87.3992	20.0943	0.9736
87.4275	20.5189	0.9838
87.4558	19.1509	0.9504
87.4840	18.1132	0.9243
87.5123	17.9245	0.9195
87.5406	17.6415	0.9122
87.5688	17.1226	0.8987
87.5971	17.3113	0.9036
87.6254	18.7264	0.9399
87.6536	19.7642	0.9655
87.6819	19.1981	0.9516
87.7102	19.0094	0.9469
87.7384	18.6792	0.9387
87.7667	19.5755	0.9609
87.7950	16.6981	0.8875
87.8232	18.7264	0.9399
87.8515	16.8396	0.8912
87.8797	17.6887	0.9134
87.9080	18.6321	0.9375
87.9363	16.9340	0.8937
87.9645	18.0189	0.9219
87.9928	16.7925	0.8900
88.0211	16.0377	0.8698
88.0493	18.3019	0.9291
88.0776	17.7830	0.9159
88.1059	18.3491	0.9303
88.1341	19.5833	0.9522
88.1624	18.9352	0.9363
88.1907	17.5000	0.9001
88.2189	18.6111	0.9282
88.2472	19.9537	0.9611
88.2755	18.6111	0.9282
88.3037	19.0741	0.9397
88.3320	16.9907	0.8869
88.3603	18.7037	0.9305
88.3885	16.3426	0.8698
88.4168	16.3889	0.8711
88.4451	18.9908	0.9333
88.4733	17.4771	0.8954
88.5016	17.7982	0.9036
88.5299	17.7523	0.9024
88.5581	17.7523	0.9024
88.5864	18.8073	0.9288
88.6147	16.8807	0.8800
88.6429	18.3028	0.9163
88.6712	17.0183	0.8835
88.6994	17.2018	0.8883
88.7277	17.6147	0.8989
88.7560	18.5780	0.9231
88.7842	16.4679	0.8691
88.8125	17.9358	0.9071
88.8408	17.8440	0.9047
88.8690	16.4220	0.8679
88.8973	17.9358	0.9071
88.9256	14.8624	0.8257
88.9538	17.5688	0.8977
88.9821	18.5321	0.9220
89.0104	16.8807	0.8800
89.0386	18.8991	0.9311
89.0669	16.3761	0.8667
89.0952	18.3945	0.9186
89.1234	16.6972	0.8752
89.1517	18.1193	0.9117
89.1800	17.2936	0.8907
89.2082	17.4312	0.8942
89.2365	18.8991	0.9311
89.2648	18.8636	0.9260
89.2930	18.4545	0.9159
89.3213	19.0000	0.9293
89.3496	17.7727	0.8988
89.3778	17.6364	0.8954
89.4061	17.7727	0.8988
89.4344	17.4545	0.8907
89.4626	17.4091	0.8896
89.4909	18.0455	0.9057
89.5192	19.8182	0.9491
89.5474	19.4545	0.9404
89.5757	17.9091	0.9022
89.6039	16.9091	0.8767
89.6322	17.7273	0.8977
89.6605	17.1818	0.8837
89.6887	18.7727	0.9237
89.7170	18.6818	0.9215
89.7453	17.9091	0.9022
89.7735	17.2273	0.8849
89.8018	19.9545	0.9524
89.8301	16.7727	0.8732
89.8583	18.2273	0.9102
89.8866	18.4545	0.9159
89.9149	17.6364	0.8954
89.9431	17.9091	0.9022
89.9714	17.5455	0.8930
89.9997	17.2727	0.8861
90.0279	16.9545	0.8779
90.0562	16.6818	0.8708
90.0845	17.1818	0.8837
90.1127	18.7273	0.9226
90.1410	18.0000	0.9045
90.1693	18.5909	0.9193
90.1975	18.9545	0.9282
90.2258	17.0909	0.8814
90.2541	18.3182	0.9125
90.2823	17.9545	0.9034
90.3106	17.5909	0.8942
90.3389	17.2273	0.8849
90.3671	17.7727	0.8988
90.3954	19.0455	0.9304
90.4236	17.9279	0.8986
90.4519	18.6036	0.9154
90.4802	19.7297	0.9427
90.5084	18.6486	0.9165
90.5367	19.3243	0.9330
90.5650	17.1622	0.8792
90.5932	18.8739	0.9220
90.6215	18.7387	0.9187
90.6498	18.5841	0.9068
90.6780	17.9646	0.8916
90.7063	16.8142	0.8625
90.7346	18.4513	0.9036
90.7628	18.0088	0.8927
90.7911	18.2743	0.8992
90.8194	17.2566	0.8738
90.8476	18.4513	0.9036
90.8759	17.7876	0.8872
90.9042	18.4071	0.9025
90.9324	18.1858	0.8970
90.9607	16.3717	0.8511
90.9890	17.5221	0.8805
91.0172	17.5664	0.8816
91.0455	17.3451	0.8761
91.0738	18.6726	0.9090
91.1020	16.1947	0.8465
91.1303	17.6549	0.8838
91.1586	17.6991	0.8850
91.1868	15.9735	0.8407
91.2151	18.6283	0.9079
91.2433	16.9027	0.8648
91.2716	19.5575	0.9303
91.2999	18.2301	0.8981
91.3281	18.4513	0.9036
91.3564	18.7168	0.9100
91.3847	17.8761	0.8894
91.4129	19.5575	0.9303
91.4412	19.1593	0.9207
91.4695	17.8319	0.8883
91.4977	17.6991	0.8850
91.5260	18.8496	0.9133
91.5543	16.9912	0.8671
91.5825	18.7719	0.9074
91.6108	17.4561	0.8750
91.6391	17.6316	0.8794
91.6673	18.7719	0.9074
91.6956	17.4561	0.8750
91.7239	18.6087	0.8995
91.7521	17.5652	0.8739
91.7804	19.3478	0.9172
91.8087	19.3043	0.9161
91.8369	19.2174	0.9141
91.8652	17.5652	0.8739
91.8935	18.6522	0.9005
91.9217	18.3478	0.8932
91.9500	18.9130	0.9068
91.9783	18.0870	0.8868
92.0065	19.2174	0.9141
92.0348	19.1739	0.9130
92.0631	17.8261	0.8804
92.0913	18.4348	0.8953
92.1196	16.9565	0.8586
92.1478	19.3043	0.9161
92.1761	18.8696	0.9058
92.2044	18.3913	0.8942
92.2326	17.8696	0.8814
92.2609	18.8696	0.9058
92.2892	19.1304	0.9120
92.3174	19.6522	0.9244
92.3457	18.5652	0.8984
92.3740	19.0435	0.9099
92.4022	18.4783	0.8963
92.4305	19.8261	0.9284
92.4588	19.3478	0.9172
92.4870	20.2174	0.9376
92.5153	18.4348	0.8953
92.5436	17.9565	0.8836
92.5718	19.6957	0.9254
92.6001	18.5217	0.8974
92.6284	20.0000	0.9325
92.6566	18.0000	0.8847
92.6849	21.4783	0.9664
92.7132	18.6087	0.8995
92.7414	19.4348	0.9192
92.7697	17.2174	0.8652
92.7980	17.8696	0.8814
92.8262	19.2241	0.9103
92.8545	20.7328	0.9453
92.8828	18.8793	0.9021
92.9110	19.2241	0.9103
92.9393	19.3534	0.9133
92.9675	17.8017	0.8760
92.9958	19.0517	0.9062
93.0241	18.5345	0.8938
93.0523	19.3534	0.9133
93.0806	18.3621	0.8896
93.1089	18.2328	0.8865
93.1371	18.7931	0.9000
93.1654	19.7845	0.9235
93.1937	17.8879	0.8781
93.2219	18.0172	0.8813
93.2502	18.1897	0.8855
93.2785	19.1379	0.9082
93.3067	17.8879	0.8781
93.3350	20.0431	0.9295
93.3633	20.1724	0.9325
93.3915	20.0000	0.9285
93.4198	19.5690	0.9184
93.4481	19.3103	0.9123
93.4763	20.6897	0.9443
93.5046	20.4310	0.9384
93.5329	19.9138	0.9265
93.5611	20.5172	0.9404
93.5894	19.2672	0.9113
93.6177	18.9655	0.9041
93.6459	18.8362	0.9011
93.6742	17.7155	0.8738
93.7025	18.7069	0.8980
93.7307	19.0517	0.9062
93.7590	20.6897	0.9443
93.7872	19.5690	0.9184
93.8155	17.8017	0.8760
93.8438	19.2672	0.9113
93.8720	18.7069	0.8980
93.9003	19.7458	0.9147
93.9286	20.5462	0.9291
93.9568	19.0336	0.8943
93.9851	18.9076	0.8913
94.0134	19.1176	0.8962
94.0416	21.1765	0.9433
94.0699	19.9580	0.9157
94.0982	19.3697	0.9021
94.1264	19.6639	0.9090
94.1547	21.2605	0.9451
94.1830	20.2101	0.9215
94.2112	19.1176	0.8962
94.2395	19.9160	0.9148
94.2678	19.7479	0.9109
94.2960	20.2941	0.9234
94.3243	19.7059	0.9099
94.3526	18.8235	0.8893
94.3808	18.6134	0.8844
94.4091	18.7815	0.8883
94.4374	20.5462	0.9291
94.4656	19.9160	0.9148
94.4939	20.2941	0.9234
94.5222	20.2521	0.9225
94.5504	20.1681	0.9205
94.5787	19.6218	0.9080
94.6070	19.0756	0.8953
94.6352	18.8235	0.8893
94.6635	18.8655	0.8903
94.6917	19.3277	0.9012
94.7200	18.2773	0.8763
94.7483	19.7059	0.9099
94.7765	21.5126	0.9507
94.8048	19.7479	0.9109
94.8331	19.5378	0.9060
94.8613	18.9076	0.8913
94.8896	19.7479	0.9109
94.9179	20.5042	0.9282
94.9461	20.6303	0.9310
94.9744	19.4958	0.9051
95.0027	19.7899	0.9119
95.0309	20.7500	0.9298
95.0592	19.4583	0.9004
95.0875	18.5000	0.8780
95.1157	19.7500	0.9071
95.1440	19.4583	0.9004
95.1723	19.2500	0.8956
95.2005	20.1250	0.9157
95.2288	19.3750	0.8985
95.2571	21.7083	0.9511
95.2853	21.0417	0.9363
95.3136	19.2917	0.8966
95.3419	20.8333	0.9317
95.3701	22.0833	0.9592
95.3984	20.7917	0.9308
95.4267	20.9167	0.9336
95.4549	21.9167	0.9556
95.4832	21.4167	0.9446
95.5114	22.5833	0.9700
95.5397	21.7083	0.9511
95.5680	20.9167	0.9336
95.5962	21.5417	0.9474
95.6245	20.8750	0.9326
95.6528	21.4167	0.9446
95.6810	21.3333	0.9428
95.7093	21.9167	0.9556
95.7376	19.1667	0.8937
95.7658	21.7917	0.9529
95.7941	21.2917	0.9419
95.8224	21.7500	0.9520
95.8506	21.7917	0.9529
95.8789	22.0000	0.9574
95.9072	22.4583	0.9673
95.9354	22.1250	0.9601
95.9637	20.5833	0.9261
95.9920	21.8333	0.9538
96.0202	19.9167	0.9110
96.0485	21.2917	0.9419
96.0768	22.8333	0.9754
96.1050	23.2917	0.9851
96.1333	23.4298	0.9840
96.1616	21.8182	0.9495
96.1898	20.9350	0.9225
96.2181	21.8293	0.9420
96.2464	22.2764	0.9516
96.2746	21.6260	0.9376
96.3029	23.4146	0.9756
96.3312	20.3252	0.9090
96.3594	20.6504	0.9162
96.3877	21.1789	0.9279
96.4159	23.1707	0.9705
96.4442	22.3171	0.9525
96.4725	22.8049	0.9628
96.5007	21.5041	0.9350
96.5290	20.7724	0.9189
96.5573	20.4878	0.9126
96.5855	22.8049	0.9628
96.6138	24.1057	0.9899
96.6421	22.2764	0.9516
96.6703	22.2358	0.9507
96.6986	21.5854	0.9367
96.7269	23.5366	0.9781
96.7551	21.8293	0.9420
96.7834	23.5366	0.9781
96.8117	23.1707	0.9705
96.8399	24.1463	0.9907
96.8682	22.5203	0.9568
96.8965	24.1057	0.9899
96.9247	24.8374	1.0048
96.9530	23.9837	0.9874
96.9813	25.0000	1.0081
97.0095	25.4878	1.0179
97.0378	25.1626	1.0114
97.0661	25.6098	1.0203
97.0943	23.5366	0.9781
97.1226	24.4309	0.9966
97.1509	24.3902	0.9957
97.1791	23.4959	0.9773
97.2074	24.5968	0.9959
97.2356	23.9113	0.9819
97.2639	24.9194	1.0024
97.2922	24.2339	0.9885
97.3204	25.5242	1.0145
97.3487	25.0000	1.0000
97.3770	24.6400	0.9928
97.4052	24.4800	0.9895
97.4335	26.2000	1.0237
97.4618	25.5600	1.0111
97.4900	24.9200	0.9984
97.5183	27.2000	1.0431
97.5466	26.5600	1.0307
97.5748	28.2000	1.0621
97.6031	28.6800	1.0711
97.6314	26.7600	1.0346
97.6596	27.6000	1.0507
97.6879	27.3600	1.0461
97.7162	28.5200	1.0681
97.7444	28.3200	1.0643
97.7727	29.6800	1.0896
97.8010	31.0400	1.1143
97.8292	29.8400	1.0925
97.8575	31.6400	1.1250
97.8858	32.8400	1.1461
97.9140	31.5600	1.1236
97.9423	32.8400	1.1461
97.9706	32.6400	1.1426
97.9988	33.6800	1.1607
98.0271	36.2000	1.2033
98.0553	36.5200	1.2086
98.0836	35.5600	1.1926
98.1119	37.8400	1.2303
98.1401	37.0400	1.2172
98.1684	37.0000	1.2166
98.1967	38.4400	1.2400
98.2249	38.9600	1.2484
98.2532	38.7600	1.2452
98.2815	39.8016	1.2568
98.3097	42.3413	1.2962
98.3380	41.0714	1.2766
98.3663	43.5317	1.3143
98.3945	44.2857	1.3257
98.4228	44.3254	1.3263
98.4511	47.8175	1.3775
98.4793	45.3175	1.3410
98.5076	49.5703	1.3915
98.5359	49.0625	1.3844
98.5641	51.9141	1.4240
98.5924	51.8359	1.4230
98.6207	55.3125	1.4699
98.6489	52.3047	1.4294
98.6772	56.1328	1.4808
98.7055	58.2813	1.5088
98.7337	60.1172	1.5324
98.7620	60.0391	1.5314
98.7903	59.1406	1.5199
98.8185	62.2093	1.5528
98.8468	61.1628	1.5397
98.8751	63.5659	1.5696
98.9033	65.2326	1.5901
98.9316	65.3876	1.5920
98.9598	72.3643	1.6748
98.9881	73.0233	1.6824
99.0164	78.1783	1.7407
99.0446	80.2326	1.7635
99.0729	83.6434	1.8006
99.1012	83.4884	1.7989
99.1294	84.9612	1.8147
99.1577	85.7752	1.8234
99.1860	85.6202	1.8217
99.2142	86.2403	1.8283
99.2425	81.7442	1.7800
99.2708	79.3411	1.7536
99.2990	79.4574	1.7549
99.3273	75.1938	1.7072
99.3556	72.3077	1.6677
99.3838	73.8462	1.6853
99.4121	73.9231	1.6862
99.4404	69.1923	1.6313
99.4686	72.4615	1.6694
99.4969	66.7692	1.6025
99.5252	65.7308	1.5900
99.5534	64.2308	1.5718
99.5817	58.8462	1.5044
99.6100	56.3462	1.4721
99.6382	53.2308	1.4309
99.6665	52.7481	1.4189
99.6948	50.8397	1.3930
99.7230	47.7481	1.3500
99.7513	45.5725	1.3189
99.7795	47.1374	1.3413
99.8078	43.9695	1.2955
99.8361	40.6489	1.2456
99.8643	39.7328	1.2315
99.8926	38.3588	1.2100
99.9209	40.0382	1.2362
99.9491	36.4122	1.1789
99.9774	35.8397	1.1696
100.0057	34.6947	1.1507
100.0339	33.0534	1.1232
100.0622	34.4656	1.1469
100.0905	32.4809	1.1134
100.1187	33.0916	1.1238
100.1470	31.9466	1.1042
100.1753	29.5420	1.0619
100.2035	28.6641	1.0460
100.2318	30.6107	1.0809
100.2601	29.7328	1.0653
100.2883	29.2366	1.0564
100.3166	28.7023	1.0467
100.3449	28.1298	1.0362
100.3731	27.0992	1.0170
100.4014	27.6718	1.0277
100.4297	27.0301	1.0081
100.4579	26.5789	0.9996
100.4862	27.9699	1.0254
100.5145	25.8647	0.9861
100.5427	26.3910	0.9961
100.5710	25.4511	0.9782
100.5993	27.8947	1.0240
100.6275	26.0150	0.9889
100.6558	25.7519	0.9839
100.6840	25.4135	0.9774
100.7123	26.3910	0.9961
100.7406	24.8120	0.9658
100.7688	25.7519	0.9839
100.7971	24.1045	0.9484
100.8254	24.7015	0.9601
100.8536	25.6343	0.9780
100.8819	25.7836	0.9809
100.9102	23.6194	0.9388
100.9384	24.1418	0.9491
100.9667	25.2963	0.9679
100.9950	24.9630	0.9615
101.0232	24.8889	0.9601
101.0515	24.4074	0.9508
101.0798	23.5185	0.9333
101.1080	25.5185	0.9722
101.1363	24.6667	0.9558
101.1646	25.4815	0.9715
101.1928	23.7778	0.9384
101.2211	25.6667	0.9750
101.2494	22.7778	0.9185
101.2776	22.8148	0.9192
101.3059	24.9259	0.9608
101.3342	25.0370	0.9630
101.3624	23.1481	0.9259
101.3907	23.7868	0.9352
101.4190	23.3456	0.9264
101.4472	24.7059	0.9531
101.4755	24.2279	0.9438
101.5037	23.0882	0.9213
101.5320	24.6324	0.9516
101.5603	23.2721	0.9250
101.5885	24.3750	0.9466
101.6168	26.1029	0.9796
101.6451	24.1544	0.9424
101.6733	25.3309	0.9650
101.7016	25.0368	0.9594
101.7299	24.5221	0.9495
101.7581	24.5956	0.9509
101.7864	24.4485	0.9481
101.8147	23.6765	0.9330
101.8429	22.8309	0.9162
101.8712	24.0074	0.9395
101.8995	24.8897	0.9566
101.9277	23.6029	0.9315
101.9560	25.1838	0.9622
101.9843	23.4420	0.9216
102.0125	25.0362	0.9524
102.0408	23.2734	0.9150
102.0691	25.4317	0.9565
102.0973	24.4245	0.9373
102.1256	23.8849	0.9269
102.1539	23.8849	0.9269
102.1821	25.5396	0.9585
102.2104	24.3165	0.9353
102.2387	24.0288	0.9297
102.2669	25.1799	0.9517
102.2952	24.4964	0.9387
102.3234	23.2014	0.9136
102.3517	24.7842	0.9442
102.3800	24.6043	0.9408
102.4082	24.3165	0.9353
102.4365	24.6763	0.9421
102.4648	23.2014	0.9136
102.4930	24.7842	0.9442
102.5213	23.3453	0.9164
102.5496	23.4286	0.9147
102.5778	24.3972	0.9301
102.6061	25.5319	0.9515
102.6344	25.7092	0.9548
102.6626	23.8298	0.9193
102.6909	22.9433	0.9020
102.7192	23.8298	0.9193
102.7474	23.5461	0.9138
102.7757	24.2553	0.9274
102.8040	24.1135	0.9247
102.8322	24.1489	0.9254
102.8605	23.2624	0.9082
102.8888	24.4326	0.9308
102.9170	24.3972	0.9301
102.9453	23.5461	0.9138
102.9736	25.5674	0.9522
103.0018	23.7589	0.9179
103.0301	25.1064	0.9436
103.0584	24.7163	0.9362
103.0866	24.4326	0.9308
103.1149	25.2837	0.9469
103.1432	24.2199	0.9267
103.1714	23.1469	0.8996
103.1997	24.5105	0.9257
103.2279	23.6364	0.9091
103.2562	24.2308	0.9205
103.2845	24.7552	0.9304
103.3127	24.7552	0.9304
103.3410	23.0070	0.8969
103.3693	25.5944	0.9460
103.3975	23.7063	0.9104
103.4258	25.4196	0.9428
103.4541	24.4755	0.9251
103.4823	24.9650	0.9343
103.5106	23.2517	0.9017
103.5389	24.9650	0.9343
103.5671	25.5245	0.9447
103.5954	25.4196	0.9428
103.6237	24.6181	0.9246
103.6519	24.6875	0.9259
103.6802	25.1736	0.9349
103.7085	24.8264	0.9285
103.7367	24.0972	0.9147
103.7650	24.2069	0.9136
103.7933	26.3103	0.9525
103.8215	24.2759	0.9149
103.8498	24.2069	0.9136
103.8781	23.4138	0.8985
103.9063	24.8276	0.9253
103.9346	24.6897	0.9227
103.9629	23.8621	0.9071
103.9911	24.4138	0.9175
104.0194	25.8621	0.9443
104.0476	23.3448	0.8972
104.0759	22.3793	0.8785
104.1042	23.6552	0.9032
104.1324	24.6897	0.9227
104.1607	25.2740	0.9303
104.1890	24.3493	0.9132
104.2172	25.9589	0.9429
104.2455	24.5548	0.9170
104.2738	23.9384	0.9054
104.3020	25.4110	0.9329
104.3303	25.3082	0.9310
104.3586	24.4178	0.9145
104.3868	23.3904	0.8950
104.4151	24.4178	0.9145
104.4434	24.4521	0.9151
104.4716	24.7260	0.9202
104.4999	24.5205	0.9164
104.5282	23.1849	0.8911
104.5564	24.3151	0.9125
104.5847	24.5890	0.9177
104.6130	23.0822	0.8891
104.6412	23.4247	0.8957
104.6695	25.6849	0.9379
104.6978	24.5270	0.9103
104.7260	24.2230	0.9046
104.7543	26.4527	0.9453
104.7826	26.0473	0.9381
104.8108	24.4595	0.9090
104.8391	23.8851	0.8983
104.8674	23.7500	0.8957
104.8956	25.0338	0.9196
104.9239	25.8108	0.9338
104.9521	24.1611	0.9004
104.9804	24.2953	0.9029
105.0087	25.8725	0.9318
105.0369	23.7919	0.8935
105.0652	24.2617	0.9023
105.0935	23.4899	0.8878
105.1217	23.8926	0.8954
105.1500	23.8255	0.8942
105.1783	24.9329	0.9147
105.2065	24.4966	0.9067
105.2348	23.8333	0.8913
105.2631	24.6000	0.9055
105.2913	23.8667	0.8919
105.3196	26.1333	0.9333
105.3479	23.6333	0.8876
105.3761	24.7000	0.9074
105.4044	25.4667	0.9214
105.4327	23.2333	0.8800
105.4609	25.5000	0.9220
105.4892	23.2667	0.8807
105.5175	24.7667	0.9086
105.5457	25.8609	0.9254
105.5740	26.6887	0.9401
105.6023	23.4437	0.8811
105.6305	25.0993	0.9116
105.6588	24.3377	0.8977
105.6871	25.3974	0.9170
105.7153	24.6689	0.9038
105.7436	25.1987	0.9135
105.7718	26.7550	0.9412
105.8001	24.7020	0.9044
105.8284	24.7020	0.9044
105.8566	24.3377	0.8977
105.8849	25.6291	0.9212
105.9132	25.4636	0.9182
105.9414	26.9868	0.9453
105.9697	24.3046	0.8971
105.9980	24.1722	0.8947
106.0262	24.7020	0.9044
106.0545	25.7285	0.9230
106.0828	26.8212	0.9424
106.1110	25.4967	0.9188
106.1393	25.7190	0.9168
106.1676	25.5556	0.9139
106.1958	25.1961	0.9074
106.2241	25.4575	0.9121
106.2524	24.8039	0.9003
106.2806	26.6013	0.9324
106.3089	25.8442	0.9160
106.3372	27.1429	0.9388
106.3654	23.6688	0.8766
106.3937	25.9416	0.9177
106.4220	25.2273	0.9050
106.4502	26.1039	0.9206
106.4785	25.0974	0.9027
106.5068	26.5260	0.9280
106.5350	25.4221	0.9085
106.5633	24.8377	0.8980
106.5915	26.0390	0.9195
106.6198	26.3961	0.9258
106.6481	25.3571	0.9073
106.6763	23.7013	0.8772
106.7046	26.8387	0.9305
106.7329	25.2581	0.9026
106.7611	24.3548	0.8864
106.7894	25.2258	0.9021
106.8177	25.0323	0.8986
106.8459	25.3205	0.9009
106.8742	25.8974	0.9111
106.9025	25.6410	0.9065
106.9307	25.6410	0.9065
106.9590	25.5128	0.9043
106.9873	25.1923	0.8986
107.0155	27.1474	0.9328
107.0438	24.6474	0.8888
107.0721	25.3846	0.9020
107.1003	25.8013	0.9094
107.1286	24.7436	0.8905
107.1569	25.7051	0.9077
107.1851	25.8974	0.9111
107.2134	27.1154	0.9322
107.2417	25.0321	0.8957
107.2699	25.7692	0.9088
107.2982	25.2564	0.8997
107.3265	25.9936	0.9128
107.3547	26.5705	0.9228
107.3830	26.6772	0.9188
107.4113	26.1392	0.9095
107.4395	26.1076	0.9089
107.4678	26.2342	0.9112
107.4960	25.3797	0.8962
107.5243	25.0633	0.8906
107.5526	25.7595	0.9029
107.5808	25.0000	0.8895
107.6091	26.4241	0.9144
107.6374	25.1582	0.8923
107.6656	25.7911	0.9034
107.6939	26.3608	0.9133
107.7222	26.5823	0.9172
107.7504	26.0127	0.9073
107.7787	26.5190	0.9161
107.8070	25.1266	0.8917
107.8352	26.4241	0.9144
107.8635	25.9494	0.9062
107.8918	26.2813	0.9063
107.9200	26.5938	0.9116
107.9483	28.6250	0.9458
107.9766	26.3750	0.9079
108.0048	26.2188	0.9052
108.0331	25.9375	0.9003
108.0614	25.0313	0.8844
108.0896	25.6250	0.8949
108.1179	25.7233	0.8994
108.1462	24.4620	0.8798
108.1744	27.3718	0.9366
108.2027	24.6154	0.8882
108.2310	26.5484	0.9254
108.2592	25.8117	0.9154
108.2875	25.9150	0.9203
108.3157	26.7550	0.9412
108.3440	28.0464	0.9637
108.3723	26.1667	0.9339
108.4005	25.6376	0.9275
108.4288	26.9595	0.9544
108.4571	25.2397	0.9297
108.4853	28.2877	0.9843
108.5136	27.0205	0.9620
108.5419	25.2759	0.9336
108.5701	27.3958	0.9753
108.5984	26.1189	0.9556
108.6267	25.3546	0.9482
108.6549	25.7801	0.9561
108.6832	26.3571	0.9702
108.7115	24.2446	0.9339
108.7397	26.7391	0.9843
108.7680	27.3529	1.0028
108.7963	26.6176	0.9892
108.8245	27.6296	1.0116
108.8528	25.6716	0.9787
108.8811	26.0150	0.9889
108.9093	25.4198	0.9850
108.9376	25.9160	0.9946
108.9659	26.0385	1.0007
108.9941	25.9690	1.0033
109.0224	25.6641	1.0013
109.0507	25.1190	0.9984
109.0789	27.1032	1.0371
109.1072	26.6000	1.0315
109.1355	25.9600	1.0190
109.1637	24.6371	0.9967
109.1920	28.6179	1.0786
109.2202	29.0083	1.0948
109.2485	24.9583	1.0198
109.2768	25.3333	1.0274
109.3050	26.1345	1.0479
109.3333	24.0678	1.0099
109.3616	26.5948	1.0707
109.3898	26.3913	1.0712
109.4181	25.5652	1.0543
109.4464	25.3070	1.0535
109.4746	25.5752	1.0638
109.5029	24.8198	1.0574
109.5312	27.1818	1.1115
109.5594	26.2727	1.0928
109.5877	26.3303	1.0990
109.6160	25.7870	1.0926
109.6442	23.9623	1.0632
109.6725	23.6792	1.0569
109.7008	26.6667	1.1269
109.7290	26.0000	1.1127
109.7573	27.3077	1.1458
109.7856	25.4854	1.1123
109.8138	26.3366	1.1418
109.8421	26.5000	1.1511
109.8704	28.7000	1.1979
109.8986	25.2020	1.1282
109.9269	23.9286	1.1049
109.9552	26.3542	1.1716
109.9834	26.5263	1.1816
