1.544427
20.0141	39.3333	2.0905
20.0424	40.4444	2.1199
20.0707	41.3333	2.1430
20.0989	38.8889	2.0787
20.1272	37.1111	2.0306
20.1555	39.1111	2.0846
20.1837	35.6667	1.9907
20.2120	37.3333	2.0367
20.2403	41.5556	2.1488
20.2685	40.0000	2.1082
20.2968	37.8889	2.0518
20.3251	41.1111	2.1373
20.3533	41.7778	2.1545
20.3816	39.3333	2.0905
20.4099	39.2222	2.0876
20.4381	38.3333	2.0638
20.4664	39.0000	2.0817
20.4946	39.4444	2.0935
20.5229	37.5556	2.0428
20.5512	35.2222	1.9783
20.5794	38.1111	2.0578
20.6077	35.4444	1.9845
20.6360	37.7778	2.0488
20.6642	39.7778	2.1023
20.6925	36.4444	2.0123
20.7208	36.5556	2.0154
20.7490	37.0526	1.9749
20.7773	37.6842	1.9917
20.8056	38.0000	2.0000
20.8338	36.3158	1.9552
20.8621	34.9474	1.9180
20.8904	35.2632	1.9266
20.9186	39.1579	2.0302
20.9469	37.2632	1.9805
20.9752	34.0000	1.8918
21.0034	38.0000	2.0000
21.0317	37.2632	1.9805
21.0600	33.8947	1.8889
21.0882	37.6842	1.9917
21.1165	38.9474	2.0248
21.1448	34.2105	1.8977
21.1730	38.8421	2.0220
21.2013	34.5263	1.9064
21.2296	38.8421	2.0220
21.2578	36.7368	1.9665
21.2861	33.8000	1.8385
21.3143	38.2000	1.9545
21.3426	39.1000	1.9774
21.3709	34.1000	1.8466
21.3991	37.0000	1.9235
21.4274	36.2000	1.9026
21.4557	36.5000	1.9105
21.4839	36.2000	1.9026
21.5122	34.9000	1.8682
21.5405	34.2000	1.8493
21.5687	33.1000	1.8193
21.5970	36.2000	1.9026
21.6253	39.5000	1.9875
21.6535	32.6000	1.8055
21.6818	37.5000	1.9365
21.7101	36.9000	1.9209
21.7383	35.1000	1.8735
21.7666	36.6000	1.9131
21.7949	32.9000	1.8138
21.8231	36.4000	1.9079
21.8514	35.9000	1.8947
21.8797	35.7000	1.8894
21.9079	38.5000	1.9621
21.9362	35.6000	1.8868
21.9645	32.3000	1.7972
21.9927	30.2000	1.7378
22.0210	35.9000	1.8947
22.0493	33.7000	1.8358
22.0775	35.4000	1.8815
22.1058	31.9000	1.7861
22.1340	32.8000	1.8111
22.1623	34.0000	1.8439
22.1906	31.1000	1.7635
22.2188	29.1000	1.7059
22.2471	31.6000	1.7776
22.2754	33.0000	1.8166
22.3036	37.2000	1.9287
22.3319	32.6000	1.8055
22.3602	34.1000	1.8466
22.3884	32.1000	1.7916
22.4167	31.5000	1.7748
22.4450	34.1000	1.8466
22.4732	34.0000	1.8439
22.5015	32.7000	1.8083
22.5298	31.7000	1.7804
22.5580	31.5000	1.7748
22.5863	29.5000	1.7176
22.6146	33.0000	1.8166
22.6428	34.5000	1.8574
22.6711	34.1000	1.8466
22.6994	29.5000	1.7176
22.7276	31.5000	1.7748
22.7559	33.5000	1.8303
22.7842	34.6000	1.8601
22.8124	30.4000	1.7436
22.8407	32.3000	1.7972
22.8690	30.3000	1.7407
22.8972	34.3000	1.8520
22.9255	33.2000	1.8221
22.9538	33.1000	1.8193
22.9820	31.1000	1.7635
23.0103	31.2000	1.7664
23.0385	31.9000	1.7861
23.0668	27.4000	1.6553
23.0951	30.1000	1.7349
23.1233	29.2000	1.7088
23.1516	32.3000	1.7972
23.1799	28.9000	1.7000
23.2081	31.4000	1.7720
23.2364	31.2000	1.7664
23.2647	29.0000	1.7029
23.2929	27.5000	1.6583
23.3212	33.5000	1.8303
23.3495	27.1000	1.6462
23.3777	32.6000	1.8055
23.4060	29.4000	1.7146
23.4343	32.2000	1.7944
23.4625	29.1000	1.7059
23.4908	29.0000	1.7029
23.5191	29.9000	1.7292
23.5473	28.1000	1.6763
23.5756	30.4000	1.7436
23.6039	28.7000	1.6941
23.6321	27.0000	1.6432
23.6604	24.5000	1.5652
23.6887	29.2000	1.7088
23.7169	29.7000	1.7234
23.7452	28.9000	1.7000
23.7735	27.1000	1.6462
23.8017	29.9000	1.7292
23.8300	29.5000	1.7176
23.8582	27.1000	1.6462
23.8865	29.9000	1.7292
23.9148	30.9000	1.7578
23.9430	30.2000	1.7378
23.9713	27.6000	1.6613
23.9996	27.4000	1.6553
24.0278	28.0000	1.6733
24.0561	29.8000	1.7263
24.0844	29.7000	1.7234
24.1126	28.5000	1.6882
24.1409	30.2000	1.7378
24.1692	28.5000	1.6882
24.1974	29.2000	1.7088
24.2257	26.9000	1.6401
24.2540	29.0000	1.7029
24.2822	29.9000	1.7292
24.3105	29.6000	1.7205
24.3388	27.1000	1.6462
24.3670	24.7000	1.5716
24.3953	27.1000	1.6462
24.4236	28.9000	1.7000
24.4518	28.1000	1.6763
24.4801	24.3000	1.5588
24.5084	28.2000	1.6793
24.5366	27.2000	1.6492
24.5649	27.5000	1.6583
24.5932	28.9000	1.7000
24.6214	27.6000	1.6613
24.6497	27.8000	1.6673
24.6780	25.6000	1.6000
24.7062	31.1000	1.7635
24.7345	28.4000	1.6852
24.7627	31.2000	1.7664
24.7910	27.4000	1.6553
24.8193	29.6000	1.7205
24.8475	25.9000	1.6093
24.8758	26.7000	1.6340
24.9041	25.9000	1.6093
24.9323	28.0000	1.6733
24.9606	26.6000	1.6310
24.9889	26.7000	1.6340
25.0171	27.1000	1.6462
25.0454	28.5000	1.6882
25.0737	26.9000	1.6401
25.1019	24.9000	1.5780
25.1302	27.3333	1.6134
25.1585	27.8095	1.6274
25.1867	26.3810	1.5851
25.2150	25.1429	1.5474
25.2433	27.1429	1.6078
25.2715	25.5238	1.5591
25.2998	26.8571	1.5993
25.3281	24.4762	1.5268
25.3563	25.8095	1.5678
25.3846	26.3810	1.5851
25.4129	25.3333	1.5533
25.4411	27.6190	1.6218
25.4694	25.0476	1.5445
25.4977	25.7143	1.5649
25.5259	23.3333	1.4907
25.5542	28.0952	1.6358
25.5824	25.2381	1.5504
25.6107	26.8571	1.5993
25.6390	25.0476	1.5445
25.6672	27.9048	1.6302
25.6955	26.5714	1.5908
25.7238	28.5455	1.6109
25.7520	26.7273	1.5588
25.7803	25.0909	1.5103
25.8086	24.9091	1.5048
25.8368	29.3636	1.6338
25.8651	24.7273	1.4993
25.8934	25.0000	1.5076
25.9216	22.9091	1.4431
25.9499	24.9091	1.5048
25.9782	24.6364	1.4966
26.0064	24.1818	1.4827
26.0347	23.5455	1.4630
26.0630	26.0000	1.5374
26.0912	24.5455	1.4938
26.1195	24.1818	1.4827
26.1478	26.0000	1.5374
26.1760	23.3636	1.4574
26.2043	24.0000	1.4771
26.2326	24.3636	1.4882
26.2608	23.6364	1.4659
26.2891	24.8182	1.5021
26.3174	24.4545	1.4910
26.3456	20.8182	1.3757
26.3739	24.5455	1.4938
26.4021	22.8182	1.4403
26.4304	25.3636	1.5185
26.4587	25.4545	1.5212
26.4869	27.3636	1.5772
26.5152	24.6364	1.4966
26.5435	25.4545	1.5212
26.5717	24.9091	1.5048
26.6000	24.8182	1.5021
26.6283	26.0909	1.5401
26.6565	24.6364	1.4966
26.6848	23.1818	1.4517
26.7131	26.8182	1.5614
26.7413	24.0909	1.4799
26.7696	24.0000	1.4771
26.7979	23.0000	1.4460
26.8261	23.0909	1.4489
26.8544	22.0909	1.4171
26.8827	23.6364	1.4659
26.9109	25.0909	1.5103
26.9392	23.9091	1.4743
26.9675	23.0909	1.4489
26.9957	22.6364	1.4345
27.0240	25.4545	1.5212
27.0523	21.5455	1.3995
27.0805	21.7273	1.4054
27.1088	26.1818	1.5428
27.1371	25.6364	1.5266
27.1653	24.0909	1.4799
27.1936	23.9091	1.4743
27.2219	23.7273	1.4687
27.2501	24.0909	1.4799
27.2784	21.2727	1.3906
27.3066	21.4545	1.3966
27.3349	24.8182	1.5021
27.3632	19.6364	1.3361
27.3914	23.5455	1.4630
27.4197	22.3636	1.4259
27.4480	19.8182	1.3423
27.4762	20.9091	1.3787
27.5045	23.3636	1.4574
27.5328	23.3636	1.4574
27.5610	22.1818	1.4200
27.5893	24.5455	1.4938
27.6176	20.2727	1.3576
27.6458	21.0000	1.3817
27.6741	20.2727	1.3576
27.7024	23.0909	1.4489
27.7306	23.6364	1.4659
27.7589	23.8182	1.4715
27.7872	22.9091	1.4431
27.8154	20.8182	1.3757
27.8437	22.2727	1.4230
27.8720	25.3636	1.5185
27.9002	21.4545	1.3966
27.9285	23.0909	1.4489
27.9568	20.7273	1.3727
27.9850	21.6364	1.4025
28.0133	21.8182	1.4084
28.0416	22.0000	1.4142
28.0698	21.7273	1.4054
28.0981	21.6364	1.4025
28.1263	21.0909	1.3847
28.1546	22.3636	1.4259
28.1829	22.8182	1.4403
28.2111	22.4545	1.4287
28.2394	23.0000	1.4460
28.2677	20.1818	1.3545
28.2959	21.1818	1.3877
28.3242	21.0000	1.3817
28.3525	22.6364	1.4345
28.3807	19.3636	1.3268
28.4090	21.9091	1.4113
28.4373	21.3636	1.3936
28.4655	19.4545	1.3299
28.4938	22.6364	1.4345
28.5221	20.6364	1.3697
28.5503	20.7273	1.3727
28.5786	20.7273	1.3727
28.6069	20.9091	1.3787
28.6351	19.7273	1.3392
28.6634	20.7273	1.3727
28.6917	22.9091	1.4431
28.7199	20.7273	1.3727
28.7482	21.6364	1.4025
28.7765	21.0909	1.3847
28.8047	21.2727	1.3906
28.8330	20.4545	1.3636
28.8613	21.6364	1.4025
28.8895	20.7273	1.3727
28.9178	20.4545	1.3636
28.9461	21.7273	1.4054
28.9743	22.8182	1.4403
29.0026	22.6364	1.4345
29.0308	22.2727	1.4230
29.0591	19.8182	1.3423
29.0874	19.3636	1.3268
29.1156	23.0000	1.4460
29.1439	20.1818	1.3545
29.1722	20.4545	1.3636
29.2004	22.9091	1.4431
29.2287	21.6364	1.4025
29.2570	19.0909	1.3174
29.2852	21.0909	1.3847
29.3135	20.0000	1.3484
29.3418	18.7273	1.3048
29.3700	21.2727	1.3906
29.3983	19.1818	1.3205
29.4266	21.1818	1.3877
29.4548	20.3636	1.3606
29.4831	19.3913	1.2985
29.5114	20.9565	1.3499
29.5396	19.7391	1.3101
29.5679	20.4348	1.3330
29.5962	16.8696	1.2112
29.6244	20.2609	1.3273
29.6527	19.4783	1.3014
29.6810	20.4348	1.3330
29.7092	20.9565	1.3499
29.7375	19.1304	1.2898
29.7658	21.5652	1.3694
29.7940	23.7391	1.4368
29.8223	18.1739	1.2571
29.8505	20.8696	1.3471
29.8788	19.3043	1.2956
29.9071	19.7391	1.3101
29.9353	19.0435	1.2868
29.9636	20.5217	1.3359
29.9919	17.7391	1.2420
30.0201	21.5652	1.3694
30.0484	20.3478	1.3302
30.0767	19.4783	1.3014
30.1049	20.7826	1.3443
30.1332	19.2500	1.2666
30.1615	21.0833	1.3255
30.1897	19.0000	1.2583
30.2180	20.5000	1.3070
30.2463	19.8333	1.2856
30.2745	20.8333	1.3176
30.3028	22.0833	1.3566
30.3311	21.5000	1.3385
30.3593	16.6667	1.1785
30.3876	19.3333	1.2693
30.4159	18.1667	1.2304
30.4441	19.4167	1.2720
30.4724	20.0000	1.2910
30.5007	22.5000	1.3693
30.5289	21.8333	1.3489
30.5572	20.8333	1.3176
30.5855	19.5000	1.2748
30.6137	18.1667	1.2304
30.6420	18.5833	1.2444
30.6702	20.2500	1.2990
30.6985	18.0833	1.2276
30.7268	18.0833	1.2276
30.7550	19.5000	1.2748
30.7833	17.4167	1.2047
30.8116	18.6667	1.2472
30.8398	17.5000	1.2076
30.8681	16.6667	1.1785
30.8964	20.6667	1.3123
30.9246	17.9167	1.2219
30.9529	17.1667	1.1961
30.9812	20.9167	1.3202
31.0094	19.7500	1.2829
31.0377	19.4167	1.2720
31.0660	20.3333	1.3017
31.0942	18.0833	1.2276
31.1225	17.7500	1.2162
31.1508	17.9167	1.2219
31.1790	17.2500	1.1990
31.2073	17.6667	1.2134
31.2356	19.4167	1.2720
31.2638	17.9167	1.2219
31.2921	17.6667	1.2134
31.3204	18.0000	1.2247
31.3486	17.6667	1.2134
31.3769	17.6667	1.2134
31.4052	18.1667	1.2304
31.4334	19.9167	1.2883
31.4617	18.4167	1.2388
31.4900	16.8333	1.1844
31.5182	18.0833	1.2276
31.5465	18.6667	1.2472
31.5747	17.6667	1.2134
31.6030	18.3333	1.2360
31.6313	15.7500	1.1456
31.6595	17.8333	1.2191
31.6878	16.5000	1.1726
31.7161	16.5833	1.1756
31.7443	18.6667	1.2472
31.7726	18.5833	1.2444
31.8009	17.5833	1.2105
31.8291	17.6667	1.2134
31.8574	19.0000	1.2583
31.8857	15.0833	1.1211
31.9139	17.1667	1.1961
31.9422	18.8333	1.2528
31.9705	17.9167	1.2219
31.9987	18.7500	1.2500
32.0270	15.9167	1.1517
32.0553	19.9167	1.2883
32.0835	18.6667	1.2472
32.1118	17.7500	1.2162
32.1401	17.8333	1.2191
32.1683	16.5833	1.1756
32.1966	17.1667	1.1961
32.2249	20.5833	1.3097
32.2531	19.0833	1.2611
32.2814	18.0833	1.2276
32.3097	18.5833	1.2444
32.3379	16.0000	1.1547
32.3662	17.8333	1.2191
32.3944	17.9167	1.2219
32.4227	19.0000	1.2583
32.4510	16.9167	1.1873
32.4792	18.0833	1.2276
32.5075	17.3333	1.2019
32.5358	18.0833	1.2276
32.5640	18.6667	1.2472
32.5923	16.3333	1.1667
32.6206	15.8333	1.1487
32.6488	18.9167	1.2555
32.6771	17.4167	1.2047
32.7054	16.0000	1.1547
32.7336	15.9167	1.1517
32.7619	16.7500	1.1815
32.7902	16.4167	1.1696
32.8184	16.0000	1.1547
32.8467	15.3333	1.1304
32.8750	17.7500	1.2162
32.9032	17.7500	1.2162
32.9315	14.7500	1.1087
32.9598	16.5833	1.1756
32.9880	16.8333	1.1844
33.0163	15.3333	1.1304
33.0446	16.7500	1.1815
33.0728	17.4167	1.2047
33.1011	17.1667	1.1961
33.1294	15.4167	1.1335
33.1576	16.6667	1.1785
33.1859	15.3333	1.1304
33.2142	17.5000	1.2076
33.2424	16.0833	1.1577
33.2707	18.5000	1.2416
33.2989	16.7500	1.1815
33.3272	16.0000	1.1547
33.3555	16.6667	1.1785
33.3837	17.8333	1.2191
33.4120	14.7500	1.1087
33.4403	15.9167	1.1517
33.4685	14.6667	1.1055
33.4968	15.5000	1.1365
33.5251	17.0000	1.1902
33.5533	17.9167	1.2219
33.5816	16.4167	1.1696
33.6099	15.2500	1.1273
33.6381	16.6667	1.1785
33.6664	15.8333	1.1487
33.6947	15.2500	1.1273
33.7229	18.9167	1.2555
33.7512	16.4167	1.1696
33.7795	17.1667	1.1961
33.8077	15.3333	1.1304
33.8360	14.4167	1.0961
33.8643	17.8400	1.1947
33.8925	17.8400	1.1947
33.9208	16.8800	1.1621
33.9491	14.5600	1.0793
33.9773	18.3200	1.2106
34.0056	14.3200	1.0703
34.0339	15.0400	1.0969
34.0621	14.9600	1.0940
34.0904	16.8000	1.1593
34.1186	16.8000	1.1593
34.1469	15.2000	1.1027
34.1752	14.8800	1.0911
34.2034	15.5200	1.1143
34.2317	15.7600	1.1229
34.2600	15.4400	1.1114
34.2882	17.1200	1.1703
34.3165	17.8400	1.1947
34.3448	16.7200	1.1565
34.3730	17.8400	1.1947
34.4013	15.2800	1.1056
34.4296	17.5200	1.1839
34.4578	17.0400	1.1676
34.4861	14.9600	1.0940
34.5144	16.5600	1.1510
34.5426	17.8400	1.1947
34.5709	16.4615	1.1253
34.5992	14.7692	1.0659
34.6274	14.7692	1.0659
34.6557	16.0769	1.1121
34.6840	17.5385	1.1615
34.7122	15.9231	1.1067
34.7405	15.7692	1.1014
34.7688	15.8462	1.1041
34.7970	14.7692	1.0659
34.8253	15.1538	1.0797
34.8536	15.6154	1.0960
34.8818	15.2308	1.0824
34.9101	14.3077	1.0491
34.9383	14.7692	1.0659
34.9666	15.9231	1.1067
34.9949	15.4615	1.0906
35.0231	15.6154	1.0960
35.0514	15.6154	1.0960
35.0797	15.0000	1.0742
35.1079	17.4615	1.1590
35.1362	16.9231	1.1410
35.1645	15.5385	1.0933
35.1927	16.7692	1.1358
35.2210	13.5385	1.0205
35.2493	16.0769	1.1121
35.2775	15.4615	1.0906
35.3058	16.9231	1.1410
35.3341	14.5385	1.0575
35.3623	14.7692	1.0659
35.3906	14.3846	1.0519
35.4189	16.5385	1.1279
35.4471	17.0769	1.1461
35.4754	14.0769	1.0406
35.5037	14.8462	1.0686
35.5319	14.0000	1.0377
35.5602	15.1538	1.0797
35.5885	15.4615	1.0906
35.6167	12.9231	0.9970
35.6450	16.2308	1.1174
35.6733	18.5385	1.1942
35.7015	16.6923	1.1331
35.7298	14.1538	1.0434
35.7581	14.7692	1.0659
35.7863	17.1538	1.1487
35.8146	17.6154	1.1641
35.8428	16.6923	1.1331
35.8711	15.7692	1.1014
35.8994	18.0769	1.1792
35.9276	16.0769	1.1121
35.9559	17.6923	1.1666
35.9842	15.9231	1.1067
36.0124	16.3846	1.1227
36.0407	17.9231	1.1742
36.0690	15.5385	1.0933
36.0972	18.9231	1.2065
36.1255	18.8462	1.2040
36.1538	20.2308	1.2475
36.1820	22.8462	1.3257
36.2103	24.3846	1.3696
36.2386	20.2308	1.2475
36.2668	19.3077	1.2187
36.2951	20.4615	1.2546
36.3234	20.3077	1.2499
36.3516	17.3846	1.1564
36.3799	16.5385	1.1279
36.4082	14.7692	1.0659
36.4364	15.7692	1.1014
36.4647	17.6154	1.1641
36.4930	14.4615	1.0547
36.5212	15.6154	1.0960
36.5495	14.3846	1.0519
36.5778	15.6154	1.0960
36.6060	16.3077	1.1200
36.6343	14.6154	1.0603
36.6625	14.4615	1.0547
36.6908	15.5385	1.0933
36.7191	13.7692	1.0292
36.7473	14.6923	1.0631
36.7756	14.9231	1.0714
36.8039	16.2308	1.1174
36.8321	13.4615	1.0176
36.8604	15.0000	1.0742
36.8887	14.0000	1.0377
36.9169	14.0769	1.0406
36.9452	14.5385	1.0575
36.9735	13.9231	1.0349
37.0017	15.6154	1.0960
37.0300	13.4615	1.0176
37.0583	14.0000	1.0377
37.0865	14.0769	1.0406
37.1148	13.8462	1.0320
37.1431	12.6923	0.9881
37.1713	13.7692	1.0292
37.1996	14.0000	1.0377
37.2279	15.4615	1.0906
37.2561	15.9231	1.1067
37.2844	14.0769	1.0406
37.3127	15.8462	1.1041
37.3409	14.2308	1.0463
37.3692	13.5385	1.0205
37.3975	15.6923	1.0987
37.4257	13.6923	1.0263
37.4540	14.5385	1.0575
37.4823	15.3077	1.0851
37.5105	12.0000	0.9608
37.5388	14.5385	1.0575
37.5670	12.1538	0.9669
37.5953	14.2308	1.0463
37.6236	15.4615	1.0906
37.6518	13.8462	1.0320
37.6801	14.3077	1.0491
37.7084	12.6923	0.9881
37.7366	15.4615	1.0906
37.7649	16.0000	1.1094
37.7932	14.4615	1.0547
37.8214	14.5385	1.0575
37.8497	17.6923	1.1666
37.8780	14.6154	1.0603
37.9062	14.6923	1.0631
37.9345	15.7692	1.1014
37.9628	15.6154	1.0960
37.9910	15.1538	1.0797
38.0193	15.0000	1.0742
38.0476	16.1538	1.1147
38.0758	14.3077	1.0491
38.1041	15.6923	1.0987
38.1324	14.1538	1.0434
38.1606	17.1538	1.1487
38.1889	13.7692	1.0292
38.2172	15.9231	1.1067
38.2454	14.8148	1.0476
38.2737	15.8519	1.0836
38.3020	16.5185	1.1062
38.3302	16.8889	1.1185
38.3585	17.1111	1.1258
38.3867	16.5185	1.1062
38.4150	17.0370	1.1234
38.4433	16.9630	1.1209
38.4715	17.4815	1.1379
38.4998	18.3704	1.1665
38.5281	18.8889	1.1829
38.5563	17.5556	1.1404
38.5846	17.4074	1.1355
38.6129	18.0741	1.1571
38.6411	22.5926	1.2936
38.6694	18.2963	1.1642
38.6977	19.7778	1.2104
38.7259	19.7778	1.2104
38.7542	20.8889	1.2439
38.7825	20.2963	1.2261
38.8107	23.2593	1.3126
38.8390	23.9259	1.3313
38.8673	23.1111	1.3084
38.8955	25.5556	1.3759
38.9238	26.0741	1.3898
38.9521	27.6296	1.4306
38.9803	29.2593	1.4722
39.0086	32.9286	1.5336
39.0369	33.6429	1.5502
39.0651	35.0000	1.5811
39.0934	39.0000	1.6690
39.1217	43.1429	1.7555
39.1499	47.6429	1.8447
39.1782	50.2143	1.8939
39.2064	57.1429	2.0203
39.2347	63.9286	2.1369
39.2630	70.4286	2.2429
39.2912	74.4286	2.3057
39.3195	80.1429	2.3926
39.3478	85.4286	2.4702
39.3760	88.2143	2.5102
39.4043	94.5000	2.5981
39.4326	99.4286	2.6650
39.4608	108.9286	2.7894
39.4891	115.7143	2.8749
39.5174	121.7857	2.9494
39.5456	133.5714	3.0888
39.5739	147.7143	3.2482
39.6022	159.2143	3.3723
39.6304	170.8571	3.4934
39.6587	181.8571	3.6041
39.6870	200.0000	3.7796
39.7152	210.5000	3.8776
39.7435	218.6429	3.9519
39.7718	225.3571	4.0121
39.8000	227.9286	4.0349
39.8283	222.7857	3.9891
39.8566	224.6429	4.0057
39.8848	209.2143	3.8657
39.9131	197.7143	3.7580
39.9414	182.4286	3.6098
39.9696	154.8571	3.3258
39.9979	132.0000	3.0706
40.0262	118.7143	2.9120
40.0544	100.2143	2.6755
40.0827	85.9286	2.4774
40.1109	68.0714	2.2050
40.1392	65.8571	2.1689
40.1675	54.2143	1.9679
40.1957	46.4286	1.8211
40.2240	42.7857	1.7482
40.2523	37.5000	1.6366
40.2805	38.4286	1.6568
40.3088	34.0000	1.5584
40.3371	30.4286	1.4743
40.3653	32.6429	1.5270
40.3936	27.6429	1.4052
40.4219	27.3571	1.3979
40.4501	23.9286	1.3074
40.4784	23.2857	1.2897
40.5067	21.0714	1.2268
40.5349	23.5714	1.2976
40.5632	20.4286	1.2080
40.5915	18.9286	1.1628
40.6197	19.0714	1.1672
40.6480	17.2857	1.1112
40.6763	19.6429	1.1845
40.7045	17.2857	1.1112
40.7328	18.8571	1.1606
40.7611	18.0714	1.1361
40.7893	15.3571	1.0473
40.8176	17.5000	1.1180
40.8459	16.7857	1.0950
40.8741	14.5714	1.0202
40.9024	14.9286	1.0326
40.9306	15.6429	1.0570
40.9589	14.2857	1.0102
40.9872	16.2143	1.0762
41.0154	14.3571	1.0127
41.0437	14.1429	1.0051
41.0720	14.7143	1.0252
41.1002	15.0000	1.0351
41.1285	14.9286	1.0326
41.1568	15.0000	1.0351
41.1850	13.6429	0.9872
41.2133	15.5000	1.0522
41.2416	13.2857	0.9742
41.2698	14.5714	1.0202
41.2981	14.0714	1.0025
41.3264	13.4286	0.9794
41.3546	14.1429	1.0051
41.3829	12.7857	0.9556
41.4112	13.7857	0.9923
41.4394	12.0000	0.9258
41.4677	13.3571	0.9768
41.4960	13.2857	0.9742
41.5242	14.4286	1.0152
41.5525	13.5000	0.9820
41.5808	13.2143	0.9715
41.6090	12.3571	0.9395
41.6373	14.3571	1.0127
41.6656	13.2143	0.9715
41.6938	12.4286	0.9422
41.7221	13.0714	0.9663
41.7504	12.0714	0.9286
41.7786	14.5000	1.0177
41.8069	13.5714	0.9846
41.8351	11.7857	0.9175
41.8634	12.8571	0.9583
41.8917	14.7143	1.0252
41.9199	12.2857	0.9368
41.9482	15.2143	1.0425
41.9765	12.2143	0.9340
42.0047	15.5714	1.0546
42.0330	15.2143	1.0425
42.0613	14.0714	1.0025
42.0895	14.7857	1.0277
42.1178	14.0000	1.0000
42.1461	12.2143	0.9340
42.1743	12.9286	0.9610
42.2026	14.1429	1.0051
42.2309	14.5000	1.0177
42.2591	15.9286	1.0667
42.2874	14.1429	1.0051
42.3157	14.2143	1.0076
42.3439	15.2143	1.0425
42.3722	16.1429	1.0738
42.4005	18.4286	1.1473
42.4287	17.9286	1.1316
42.4570	18.2143	1.1406
42.4853	16.7143	1.0926
42.5135	17.5714	1.1203
42.5418	20.0714	1.1974
42.5701	20.3571	1.2059
42.5983	22.0000	1.2318
42.6266	24.4138	1.2976
42.6548	28.2759	1.3964
42.6831	31.6552	1.4775
42.7114	29.8621	1.4351
42.7396	29.2414	1.4201
42.7679	26.0000	1.3391
42.7962	24.4828	1.2994
42.8244	21.2414	1.2103
42.8527	20.0000	1.1744
42.8810	18.4828	1.1290
42.9092	18.1379	1.1184
42.9375	13.7241	0.9729
42.9658	14.7586	1.0089
42.9940	12.3448	0.9227
43.0223	13.8621	0.9778
43.0506	13.6552	0.9704
43.0788	13.3103	0.9581
43.1071	12.7586	0.9380
43.1354	13.5172	0.9655
43.1636	13.2414	0.9556
43.1919	13.9310	0.9802
43.2202	14.6207	1.0042
43.2484	13.1034	0.9506
43.2767	13.1724	0.9531
43.3050	12.1379	0.9149
43.3332	13.0345	0.9481
43.3615	11.5172	0.8912
43.3898	14.6897	1.0065
43.4180	14.0000	0.9661
43.4463	14.6667	0.9888
43.4745	13.2000	0.9381
43.5028	14.7333	0.9911
43.5311	18.1333	1.0995
43.5593	17.9333	1.0934
43.5876	17.8000	1.0893
43.6159	16.3333	1.0435
43.6441	16.2667	1.0414
43.6724	16.0000	1.0328
43.7007	15.2667	1.0088
43.7289	14.3333	0.9775
43.7572	12.8000	0.9238
43.7855	13.8667	0.9615
43.8137	13.0000	0.9309
43.8420	13.6000	0.9522
43.8703	12.3333	0.9068
43.8985	13.0000	0.9309
43.9268	10.6000	0.8406
43.9551	11.3333	0.8692
43.9833	10.8667	0.8511
44.0116	11.8667	0.8894
44.0399	12.0000	0.8944
44.0681	11.4000	0.8718
44.0964	11.3333	0.8692
44.1247	11.3333	0.8692
44.1529	12.4667	0.9117
44.1812	12.4000	0.9092
44.2095	11.0667	0.8589
44.2377	12.4667	0.9117
44.2660	11.7333	0.8844
44.2943	12.1333	0.8994
44.3225	10.6000	0.8406
44.3508	11.1333	0.8615
44.3790	11.5333	0.8769
44.4073	12.7333	0.9214
44.4356	11.7333	0.8844
44.4638	11.3333	0.8692
44.4921	13.1333	0.9357
44.5204	12.0000	0.8944
44.5486	11.4667	0.8743
44.5769	12.0667	0.8969
44.6052	12.8667	0.9262
44.6334	13.0667	0.9333
44.6617	12.0667	0.8969
44.6900	14.2667	0.9752
44.7182	12.4000	0.9092
44.7465	12.2667	0.9043
44.7748	11.4667	0.8743
44.8030	10.2000	0.8246
44.8313	10.6667	0.8433
44.8596	9.8000	0.8083
44.8878	12.9333	0.9286
44.9161	10.6667	0.8433
44.9444	12.2000	0.9018
44.9726	10.3333	0.8300
45.0009	10.2000	0.8246
45.0292	10.3333	0.8300
45.0574	10.4000	0.8327
45.0857	10.9333	0.8537
45.1140	10.8000	0.8485
45.1422	10.8000	0.8485
45.1705	9.2667	0.7860
45.1987	10.6000	0.8406
45.2270	11.6000	0.8794
45.2553	10.0000	0.8165
45.2835	11.0000	0.8563
45.3118	9.9333	0.8138
45.3401	11.1333	0.8615
45.3683	9.0667	0.7775
45.3966	12.2000	0.9018
45.4249	9.9333	0.8138
45.4531	9.4000	0.7916
45.4814	9.4667	0.7944
45.5097	10.6000	0.8406
45.5379	10.2667	0.8273
45.5662	10.2000	0.8246
45.5945	10.8667	0.8511
45.6227	10.9333	0.8537
45.6510	9.0000	0.7746
45.6793	8.7333	0.7630
45.7075	10.4000	0.8327
45.7358	9.8667	0.8110
45.7641	8.4000	0.7483
45.7923	11.0000	0.8563
45.8206	8.4667	0.7513
45.8489	12.2000	0.9018
45.8771	10.4667	0.8353
45.9054	11.9333	0.8919
45.9337	9.4000	0.7916
45.9619	11.6667	0.8819
45.9902	11.0000	0.8563
46.0184	10.6000	0.8406
46.0467	11.2000	0.8641
46.0750	9.0667	0.7775
46.1032	9.0000	0.7746
46.1315	8.4000	0.7483
46.1598	10.7333	0.8459
46.1880	9.9333	0.8138
46.2163	9.5333	0.7972
46.2446	9.8000	0.8083
46.2728	10.6000	0.8406
46.3011	9.8000	0.8083
46.3294	11.5333	0.8769
46.3576	9.6667	0.8028
46.3859	8.9333	0.7717
46.4142	9.7333	0.8055
46.4424	10.6667	0.8433
46.4707	10.1333	0.8219
46.4990	9.2000	0.7832
46.5272	10.8667	0.8511
46.5555	9.2667	0.7860
46.5838	10.1290	0.8084
46.6120	8.6452	0.7468
46.6403	8.9677	0.7606
46.6686	9.2258	0.7715
46.6968	9.7419	0.7928
46.7251	9.0968	0.7661
46.7534	9.0323	0.7634
46.7816	8.9677	0.7606
46.8099	10.0645	0.8058
46.8382	9.8710	0.7980
46.8664	10.3226	0.8161
46.8947	9.6129	0.7875
46.9229	9.4194	0.7796
46.9512	9.3548	0.7769
46.9795	10.7097	0.8312
47.0077	8.3871	0.7356
47.0360	9.4194	0.7796
47.0643	8.9677	0.7606
47.0925	8.1290	0.7242
47.1208	9.9355	0.8006
47.1491	9.2903	0.7742
47.1773	9.1613	0.7688
47.2056	9.2903	0.7742
47.2339	9.3548	0.7769
47.2621	9.1613	0.7688
47.2904	9.5484	0.7849
47.3187	9.2258	0.7715
47.3469	9.0323	0.7634
47.3752	9.1613	0.7688
47.4035	9.5484	0.7849
47.4317	9.1613	0.7688
47.4600	8.4375	0.7262
47.4883	8.2500	0.7181
47.5165	9.0625	0.7526
47.5448	8.1875	0.7153
47.5731	8.3125	0.7208
47.6013	8.4375	0.7262
47.6296	8.5625	0.7315
47.6579	8.5625	0.7315
47.6861	8.6250	0.7342
47.7144	8.6875	0.7369
47.7426	9.6250	0.7756
47.7709	9.3750	0.7655
47.7992	8.8125	0.7421
47.8274	9.1250	0.7552
47.8557	9.0625	0.7526
47.8840	8.8750	0.7448
47.9122	8.7500	0.7395
47.9405	9.0000	0.7500
47.9688	9.8750	0.7856
47.9970	8.7500	0.7395
48.0253	8.3750	0.7235
48.0536	8.8125	0.7421
48.0818	8.5625	0.7315
48.1101	7.8750	0.7016
48.1384	9.2500	0.7603
48.1666	9.0000	0.7500
48.1949	9.6250	0.7756
48.2232	9.3125	0.7629
48.2514	8.8125	0.7421
48.2797	9.1250	0.7552
48.3080	9.0000	0.7500
48.3362	9.5625	0.7731
48.3645	7.6875	0.6932
48.3928	9.6875	0.7781
48.4210	7.7500	0.6960
48.4493	9.0000	0.7500
48.4776	8.4375	0.7262
48.5058	9.0000	0.7500
48.5341	9.8750	0.7856
48.5624	9.1250	0.7552
48.5906	8.8750	0.7448
48.6189	9.9375	0.7881
48.6471	8.0625	0.7099
48.6754	8.4375	0.7262
48.7037	8.8125	0.7421
48.7319	8.7500	0.7395
48.7602	10.1875	0.7979
48.7885	8.5625	0.7315
48.8167	7.0625	0.6644
48.8450	8.6875	0.7369
48.8733	9.3750	0.7655
48.9015	8.3125	0.7208
48.9298	6.6875	0.6465
48.9581	7.0000	0.6614
48.9863	8.4375	0.7262
49.0146	9.5625	0.7731
49.0429	8.6250	0.7342
49.0711	7.6875	0.6932
49.0994	9.9375	0.7881
49.1277	7.5000	0.6847
49.1559	7.6875	0.6932
49.1842	8.6875	0.7369
49.2125	7.4375	0.6818
49.2407	8.2500	0.7181
49.2690	8.6250	0.7342
49.2973	8.5625	0.7315
49.3255	9.6250	0.7756
49.3538	8.0000	0.7071
49.3821	9.8125	0.7831
49.4103	8.5000	0.7289
49.4386	8.8125	0.7421
49.4668	9.5000	0.7706
49.4951	7.6875	0.6932
49.5234	7.8750	0.7016
49.5516	9.2500	0.7603
49.5799	9.1875	0.7578
49.6082	9.7500	0.7806
49.6364	9.5000	0.7706
49.6647	8.9375	0.7474
49.6930	9.0000	0.7500
49.7212	8.2500	0.7181
49.7495	7.8750	0.7016
49.7778	10.0000	0.7906
49.8060	10.6250	0.8149
49.8343	8.8125	0.7421
49.8626	9.2500	0.7603
49.8908	8.1875	0.7153
49.9191	8.1875	0.7153
49.9474	8.5625	0.7315
49.9756	9.4375	0.7680
50.0039	6.8750	0.6555
50.0322	8.6250	0.7342
50.0604	9.8750	0.7856
50.0887	8.6250	0.7342
50.1170	6.6875	0.6465
50.1452	9.0000	0.7500
50.1735	8.0000	0.7071
50.2018	9.4375	0.7680
50.2300	8.5000	0.7289
50.2583	8.3125	0.7208
50.2865	8.1250	0.7126
50.3148	8.3125	0.7208
50.3431	9.2500	0.7603
50.3713	8.4375	0.7262
50.3996	7.6250	0.6903
50.4279	9.0000	0.7500
50.4561	8.4375	0.7262
50.4844	7.8125	0.6988
50.5127	7.4375	0.6818
50.5409	8.7273	0.7273
50.5692	8.2424	0.7068
50.5975	7.0303	0.6527
50.6257	8.7273	0.7273
50.6540	8.1212	0.7016
50.6823	8.2424	0.7068
50.7105	7.8182	0.6884
50.7388	7.9394	0.6937
50.7671	7.6970	0.6830
50.7953	9.2121	0.7472
50.8236	7.5758	0.6776
50.8519	8.1818	0.7042
50.8801	7.5152	0.6749
50.9084	8.6667	0.7247
50.9367	8.4242	0.7145
50.9649	8.7879	0.7298
50.9932	8.5455	0.7197
51.0215	8.2424	0.7068
51.0497	7.3939	0.6694
51.0780	6.6667	0.6356
51.1063	8.4848	0.7171
51.1345	9.0909	0.7423
51.1628	7.5758	0.6776
51.1910	8.7879	0.7298
51.2193	9.0909	0.7423
51.2476	7.5152	0.6749
51.2758	8.7273	0.7273
51.3041	7.0303	0.6527
51.3324	10.1212	0.7832
51.3606	8.1212	0.7016
51.3889	8.0606	0.6989
51.4172	8.0606	0.6989
51.4454	7.3333	0.6667
51.4737	9.7059	0.7556
51.5020	8.2941	0.6985
51.5302	8.2353	0.6960
51.5585	7.3529	0.6577
51.5868	7.0588	0.6444
51.6150	7.5882	0.6681
51.6433	8.4118	0.7034
51.6716	8.3529	0.7010
51.6998	7.4706	0.6629
51.7281	7.3529	0.6577
51.7564	7.3529	0.6577
51.7846	7.1176	0.6471
51.8129	7.0000	0.6417
51.8412	7.8824	0.6809
51.8694	8.5882	0.7108
51.8977	8.8824	0.7228
51.9260	10.2353	0.7759
51.9542	8.4118	0.7034
51.9825	7.4118	0.6603
52.0107	8.1765	0.6935
52.0390	8.3529	0.7010
52.0673	8.0588	0.6885
52.0955	7.7647	0.6758
52.1238	7.9412	0.6835
52.1521	8.4706	0.7059
52.1803	9.2353	0.7371
52.2086	8.7059	0.7156
52.2369	9.7059	0.7556
52.2651	8.8235	0.7204
52.2934	7.7059	0.6733
52.3217	8.0000	0.6860
52.3499	7.0000	0.6417
52.3782	7.1176	0.6471
52.4065	8.0588	0.6885
52.4347	8.2941	0.6985
52.4630	7.4706	0.6629
52.4913	8.0588	0.6885
52.5195	8.4118	0.7034
52.5478	7.9412	0.6835
52.5761	7.5294	0.6655
52.6043	6.8235	0.6335
52.6326	7.7647	0.6758
52.6609	8.6471	0.7132
52.6891	8.9412	0.7252
52.7174	8.8824	0.7228
52.7457	7.2353	0.6524
52.7739	7.8824	0.6809
52.8022	7.8235	0.6784
52.8305	8.4118	0.7034
52.8587	8.0588	0.6885
52.8870	7.7059	0.6733
52.9152	9.1765	0.7347
52.9435	7.5294	0.6655
52.9718	7.7059	0.6733
53.0000	8.5294	0.7083
53.0283	7.8235	0.6784
53.0566	7.5294	0.6655
53.0848	7.8824	0.6809
53.1131	7.4118	0.6603
53.1414	8.6471	0.7132
53.1696	8.2353	0.6960
53.1979	7.1765	0.6497
53.2262	8.9412	0.7252
53.2544	7.1176	0.6471
53.2827	8.1176	0.6910
53.3110	8.1765	0.6935
53.3392	7.3529	0.6577
53.3675	8.4118	0.7034
53.3958	8.2353	0.6960
53.4240	7.2941	0.6550
53.4523	8.5294	0.7083
53.4806	7.8235	0.6784
53.5088	8.1176	0.6910
53.5371	6.8235	0.6335
53.5654	6.8235	0.6335
53.5936	8.7647	0.7180
53.6219	7.1765	0.6497
53.6502	6.8235	0.6335
53.6784	8.1176	0.6910
53.7067	7.3529	0.6577
53.7349	6.7059	0.6281
53.7632	8.5294	0.7083
53.7915	7.7059	0.6733
53.8197	7.4706	0.6629
53.8480	5.8235	0.5853
53.8763	7.5294	0.6655
53.9045	8.2941	0.6985
53.9328	8.1765	0.6935
53.9611	7.0588	0.6444
53.9893	7.2941	0.6550
54.0176	6.8235	0.6335
54.0459	6.3529	0.6113
54.0741	6.8235	0.6335
54.1024	7.4706	0.6629
54.1307	7.3529	0.6577
54.1589	6.8235	0.6335
54.1872	8.0000	0.6860
54.2155	7.5882	0.6681
54.2437	7.1765	0.6497
54.2720	7.7647	0.6758
54.3003	7.6471	0.6707
54.3285	7.8235	0.6784
54.3568	9.2353	0.7371
54.3851	8.9412	0.7252
54.4133	8.2941	0.6985
54.4416	7.7647	0.6758
54.4699	7.4706	0.6629
54.4981	6.5294	0.6197
54.5264	7.5429	0.6565
54.5546	8.5714	0.6999
54.5829	7.4286	0.6515
54.6112	7.3143	0.6465
54.6394	8.0571	0.6785
54.6677	8.0000	0.6761
54.6960	8.0000	0.6761
54.7242	7.5429	0.6565
54.7525	9.1429	0.7228
54.7808	8.6857	0.7045
54.8090	7.6000	0.6590
54.8373	7.6571	0.6615
54.8656	8.5143	0.6975
54.8938	7.7143	0.6639
54.9221	5.9429	0.5827
54.9504	6.7429	0.6207
54.9786	6.7429	0.6207
55.0069	8.4571	0.6952
55.0352	7.5429	0.6565
55.0634	8.0000	0.6761
55.0917	7.8857	0.6713
55.1200	8.7429	0.7068
55.1482	7.2571	0.6440
55.1765	6.9143	0.6286
55.2048	6.9143	0.6286
55.2330	7.4857	0.6540
55.2613	7.8286	0.6688
55.2896	7.5429	0.6565
55.3178	7.4857	0.6540
55.3461	8.1143	0.6809
55.3744	8.2286	0.6857
55.4026	7.4286	0.6515
55.4309	9.2000	0.7251
55.4591	7.2000	0.6414
55.4874	8.0000	0.6761
55.5157	8.4444	0.6849
55.5439	7.1111	0.6285
55.5722	8.6667	0.6939
55.6005	8.2222	0.6759
55.6287	7.6667	0.6526
55.6570	8.6111	0.6917
55.6853	7.6111	0.6503
55.7135	8.5556	0.6894
55.7418	8.9444	0.7049
55.7701	8.5000	0.6872
55.7983	8.5000	0.6872
55.8266	8.3333	0.6804
55.8549	9.1667	0.7136
55.8831	8.4444	0.6849
55.9114	8.6667	0.6939
55.9397	7.7222	0.6550
55.9679	7.9444	0.6643
55.9962	6.7222	0.6111
56.0245	8.2778	0.6781
56.0527	9.2778	0.7179
56.0810	8.8889	0.7027
56.1093	6.9444	0.6211
56.1375	7.6667	0.6526
56.1658	9.2222	0.7158
56.1941	8.6667	0.6939
56.2223	9.2222	0.7158
56.2506	9.6667	0.7328
56.2788	9.5000	0.7265
56.3071	8.3889	0.6827
56.3354	8.1111	0.6713
56.3636	10.7222	0.7718
56.3919	8.2222	0.6759
56.4202	9.2222	0.7158
56.4484	8.6111	0.6917
56.4767	10.0556	0.7474
56.5050	9.5556	0.7286
56.5332	9.2778	0.7179
56.5615	10.1111	0.7495
56.5898	10.0556	0.7474
56.6180	9.1667	0.7136
56.6463	10.8333	0.7758
56.6746	10.1667	0.7515
56.7028	10.5556	0.7658
56.7311	11.9444	0.8146
56.7594	11.2222	0.7896
56.7876	11.6667	0.8051
56.8159	12.3889	0.8296
56.8442	13.0000	0.8498
56.8724	11.9444	0.8146
56.9007	12.5556	0.8352
56.9290	13.7778	0.8749
56.9572	12.9444	0.8480
56.9855	14.5556	0.8992
57.0138	14.9444	0.9112
57.0420	14.0000	0.8819
57.0703	15.2222	0.9196
57.0986	15.1667	0.9179
57.1268	17.2778	0.9797
57.1551	17.1111	0.9750
57.1833	18.6667	1.0184
57.2116	19.1111	1.0304
57.2399	22.1667	1.1097
57.2681	22.2778	1.1125
57.2964	21.6111	1.0957
57.3247	23.6667	1.1467
57.3529	25.3889	1.1876
57.3812	24.8333	1.1746
57.4095	25.2222	1.1837
57.4377	25.8889	1.1993
57.4660	29.1111	1.2717
57.4943	30.2222	1.2958
57.5225	29.6667	1.2838
57.5508	26.2778	1.2083
57.5791	28.6111	1.2608
57.6073	29.2778	1.2754
57.6356	27.7778	1.2423
57.6639	25.3333	1.1863
57.6921	25.8333	1.1980
57.7204	24.5000	1.1667
57.7487	21.0000	1.0801
57.7769	20.7778	1.0744
57.8052	20.5000	1.0672
57.8335	17.7778	0.9938
57.8617	17.4444	0.9844
57.8900	15.4444	0.9263
57.9183	16.7778	0.9655
57.9465	14.2778	0.8906
57.9748	14.7222	0.9044
58.0030	13.1111	0.8535
58.0313	11.1111	0.7857
58.0596	11.1111	0.7857
58.0878	10.8889	0.7778
58.1161	10.4444	0.7617
58.1444	8.3889	0.6827
58.1726	10.8889	0.7778
58.2009	8.6111	0.6917
58.2292	9.8333	0.7391
58.2574	10.4444	0.7617
58.2857	8.7778	0.6983
58.3140	8.5556	0.6894
58.3422	9.2778	0.7179
58.3705	9.1111	0.7115
58.3988	8.9444	0.7049
58.4270	9.5556	0.7286
58.4553	7.3333	0.6383
58.4836	7.4595	0.6350
58.5118	9.5135	0.7171
58.5401	8.7568	0.6880
58.5684	8.7568	0.6880
58.5966	6.6486	0.5995
58.6249	7.2432	0.6257
58.6532	8.4865	0.6773
58.6814	8.1622	0.6642
58.7097	7.7838	0.6486
58.7380	7.8919	0.6531
58.7662	7.0811	0.6187
58.7945	8.1622	0.6642
58.8227	7.5135	0.6373
58.8510	8.1622	0.6642
58.8793	7.4595	0.6350
58.9075	8.0541	0.6598
58.9358	7.6757	0.6441
58.9641	7.0811	0.6187
58.9923	8.4324	0.6751
59.0206	7.5135	0.6373
59.0489	7.0811	0.6187
59.0771	7.7838	0.6486
59.1054	6.8649	0.6092
59.1337	8.7568	0.6880
59.1619	8.5946	0.6816
59.1902	8.0000	0.6576
59.2185	7.5135	0.6373
59.2467	7.1351	0.6210
59.2750	7.6757	0.6441
59.3033	7.4054	0.6327
59.3315	7.3514	0.6304
59.3598	7.7838	0.6486
59.3881	6.9730	0.6139
59.4163	7.3514	0.6304
59.4446	7.4054	0.6327
59.4729	8.1081	0.6620
59.5011	8.4324	0.6751
59.5294	7.9474	0.6467
59.5577	7.0000	0.6070
59.5859	6.4737	0.5837
59.6142	6.2632	0.5741
59.6425	7.1579	0.6138
59.6707	7.6842	0.6359
59.6990	7.5789	0.6316
59.7272	7.1053	0.6115
59.7555	7.9474	0.6467
59.7838	7.8421	0.6425
59.8120	8.2632	0.6595
59.8403	7.5263	0.6294
59.8686	7.8421	0.6425
59.8968	7.4211	0.6250
59.9251	7.7895	0.6403
59.9534	8.0526	0.6510
59.9816	8.2105	0.6574
60.0099	6.7895	0.5978
60.0382	7.6316	0.6338
60.0664	7.1053	0.6115
60.0947	7.1053	0.6115
60.1230	7.0000	0.6070
60.1512	8.3158	0.6616
60.1795	7.9474	0.6467
60.2078	6.7368	0.5955
60.2360	7.8421	0.6425
60.2643	7.6842	0.6359
60.2926	7.0000	0.6070
60.3208	7.5789	0.6316
60.3491	6.3684	0.5789
60.3774	8.2105	0.6574
60.4056	9.2632	0.6982
60.4339	7.5789	0.6316
60.4622	7.7895	0.6403
60.4904	7.3158	0.6205
60.5187	8.1579	0.6553
60.5469	9.1579	0.6943
60.5752	7.0000	0.6070
60.6035	7.5789	0.6316
60.6317	7.8947	0.6446
60.6600	8.6316	0.6740
60.6883	8.2105	0.6574
60.7165	8.7368	0.6781
60.7448	9.3684	0.7022
60.7731	9.0000	0.6882
60.8013	9.2632	0.6982
60.8296	9.8947	0.7216
60.8579	11.3158	0.7717
60.8861	9.8947	0.7216
60.9144	9.8947	0.7216
60.9427	10.0526	0.7274
60.9709	10.1579	0.7312
60.9992	10.8421	0.7554
61.0275	9.8947	0.7216
61.0557	8.8421	0.6822
61.0840	8.5789	0.6720
61.1123	9.6316	0.7120
61.1405	8.5263	0.6699
61.1688	8.8421	0.6822
61.1971	7.7895	0.6403
61.2253	9.0526	0.6903
61.2536	8.6842	0.6761
61.2819	8.0526	0.6510
61.3101	6.8947	0.6024
61.3384	7.0526	0.6093
61.3667	7.1579	0.6138
61.3949	7.4737	0.6272
61.4232	8.5263	0.6699
61.4514	8.2632	0.6595
61.4797	8.6316	0.6740
61.5080	7.3158	0.6205
61.5362	7.2105	0.6160
61.5645	7.3158	0.6205
61.5928	7.4211	0.6250
61.6210	8.3684	0.6637
61.6493	7.5789	0.6316
61.6776	7.1579	0.6138
61.7058	6.2632	0.5741
61.7341	8.3158	0.6616
61.7624	7.7368	0.6381
61.7906	7.1579	0.6138
61.8189	7.4211	0.6250
61.8472	7.6842	0.6359
61.8754	6.3158	0.5766
61.9037	8.0526	0.6510
61.9320	6.7895	0.5978
61.9602	7.6842	0.6359
61.9885	6.4737	0.5837
62.0168	8.4737	0.6678
62.0450	8.0000	0.6489
62.0733	6.3158	0.5766
62.1016	7.0000	0.6070
62.1298	8.0000	0.6489
62.1581	7.2632	0.6183
62.1864	7.9474	0.6467
62.2146	7.2105	0.6160
62.2429	7.5263	0.6294
62.2711	6.5789	0.5884
62.2994	7.7368	0.6381
62.3277	7.1053	0.6115
62.3559	7.8947	0.6446
62.3842	7.0526	0.6093
62.4125	7.4211	0.6250
62.4407	6.5789	0.5884
62.4690	6.9744	0.5980
62.4973	8.0000	0.6405
62.5255	7.3333	0.6132
62.5538	7.7436	0.6302
62.5821	6.6154	0.5825
62.6103	6.4103	0.5734
62.6386	6.9744	0.5980
62.6669	6.3590	0.5711
62.6951	7.5897	0.6239
62.7234	6.6667	0.5847
62.7517	6.1026	0.5594
62.7799	8.4103	0.6567
62.8082	5.8974	0.5499
62.8365	6.9744	0.5980
62.8647	8.3077	0.6527
62.8930	8.4103	0.6567
62.9213	5.9487	0.5523
62.9495	6.3590	0.5711
62.9778	6.3590	0.5711
63.0061	6.3077	0.5687
63.0343	8.3590	0.6547
63.0626	7.2308	0.6089
63.0908	6.9744	0.5980
63.1191	7.4872	0.6196
63.1474	6.6154	0.5825
63.1756	6.3590	0.5711
63.2039	8.0000	0.6405
63.2322	7.1282	0.6046
63.2604	7.2308	0.6089
63.2887	7.4359	0.6175
63.3170	6.2051	0.5641
63.3452	5.8974	0.5499
63.3735	6.4615	0.5756
63.4018	6.7692	0.5892
63.4300	6.9744	0.5980
63.4583	6.9231	0.5958
63.4866	6.4615	0.5756
63.5148	6.9231	0.5958
63.5431	6.5641	0.5802
63.5714	6.2000	0.5568
63.5996	7.1000	0.5958
63.6279	7.4634	0.6034
63.6562	8.0976	0.6285
63.6844	7.1707	0.5914
63.7127	7.9024	0.6209
63.7410	6.3415	0.5562
63.7692	7.7073	0.6132
63.7975	5.9512	0.5388
63.8258	8.2927	0.6360
63.8540	8.6829	0.6508
63.8823	6.2927	0.5540
63.9106	7.6098	0.6093
63.9388	7.2195	0.5934
63.9671	7.1707	0.5914
63.9953	7.0732	0.5874
64.0236	7.1707	0.5914
64.0519	6.7317	0.5730
64.0801	8.2927	0.6360
64.1084	6.5366	0.5647
64.1367	6.3415	0.5562
64.1649	6.6341	0.5689
64.1932	7.7561	0.6151
64.2215	8.2927	0.6360
64.2497	7.1220	0.5894
64.2780	6.1463	0.5476
64.3063	7.0732	0.5874
64.3345	6.6341	0.5689
64.3628	7.4146	0.6014
64.3911	7.7073	0.6132
64.4193	6.3415	0.5562
64.4476	7.5122	0.6053
64.4759	7.1707	0.5914
64.5041	7.9024	0.6209
64.5324	6.6829	0.5710
64.5607	7.0244	0.5854
64.5889	7.4146	0.6014
64.6172	7.3659	0.5994
64.6455	7.4634	0.6034
64.6737	7.4146	0.6014
64.7020	6.7805	0.5751
64.7303	8.0976	0.6285
64.7585	8.0488	0.6266
64.7868	7.9048	0.6135
64.8150	7.4884	0.5902
64.8433	7.3953	0.5865
64.8716	6.7442	0.5601
64.8998	7.2558	0.5809
64.9281	7.4884	0.5902
64.9564	7.7674	0.6011
64.9846	7.2558	0.5809
65.0129	7.3488	0.5846
65.0412	8.1395	0.6153
65.0694	8.1395	0.6153
65.0977	8.1860	0.6170
65.1260	7.7209	0.5993
65.1542	8.4651	0.6275
65.1825	7.5814	0.5938
65.2108	8.0000	0.6100
65.2390	7.3488	0.5846
65.2673	7.4884	0.5902
65.2956	8.2791	0.6205
65.3238	8.0000	0.6100
65.3521	7.7674	0.6011
65.3804	8.0000	0.6100
65.4086	8.3721	0.6240
65.4369	7.0698	0.5734
65.4652	7.4884	0.5902
65.4934	7.5349	0.5920
65.5217	7.9535	0.6082
65.5500	8.5581	0.6309
65.5782	6.5581	0.5523
65.6065	6.6047	0.5543
65.6348	7.5349	0.5920
65.6630	6.5116	0.5503
65.6913	8.2326	0.6188
65.7195	7.0233	0.5715
65.7478	6.4186	0.5464
65.7761	8.3256	0.6223
65.8043	7.5349	0.5920
65.8326	8.0465	0.6118
65.8609	7.3488	0.5846
65.8891	6.5116	0.5503
65.9174	6.7442	0.5601
65.9457	7.7209	0.5993
65.9739	6.4091	0.5397
66.0022	6.9545	0.5622
66.0305	6.8444	0.5515
66.0587	7.5111	0.5778
66.0870	7.4222	0.5743
66.1153	8.0889	0.5996
66.1435	7.0222	0.5587
66.1718	7.5556	0.5795
66.2001	7.0667	0.5604
66.2283	8.0444	0.5979
66.2566	7.6000	0.5812
66.2849	7.1111	0.5622
66.3131	6.6222	0.5425
66.3414	7.9556	0.5946
66.3697	6.8000	0.5497
66.3979	7.2000	0.5657
66.4262	6.8000	0.5497
66.4545	7.0667	0.5604
66.4827	7.4667	0.5761
66.5110	8.3556	0.6094
66.5392	7.3778	0.5726
66.5675	7.8667	0.5913
66.5958	8.0444	0.5979
66.6240	7.1556	0.5639
66.6523	6.9778	0.5569
66.6806	7.7333	0.5863
66.7088	7.5556	0.5795
66.7371	8.9778	0.6317
66.7654	8.6222	0.6190
66.7936	7.6889	0.5846
66.8219	8.1778	0.6029
66.8502	8.4889	0.6142
66.8784	8.9333	0.6301
66.9067	8.8000	0.6254
66.9350	8.3556	0.6094
66.9632	8.0000	0.5963
66.9915	8.9333	0.6301
67.0198	10.4000	0.6799
67.0480	8.1333	0.6012
67.0763	10.3111	0.6770
67.1046	10.2222	0.6740
67.1328	10.1778	0.6726
67.1611	11.4783	0.7064
67.1894	11.6957	0.7131
67.2176	10.6522	0.6805
67.2459	10.8085	0.6782
67.2742	10.0851	0.6551
67.3024	11.0213	0.6848
67.3307	10.3404	0.6633
67.3589	11.5319	0.7005
67.3872	10.3404	0.6633
67.4155	9.9149	0.6495
67.4437	10.7660	0.6768
67.4720	9.7021	0.6425
67.5003	8.7660	0.6108
67.5285	8.2979	0.5942
67.5568	10.5532	0.6701
67.5851	8.4255	0.5988
67.6133	8.2553	0.5927
67.6416	7.3191	0.5581
67.6699	8.4255	0.5988
67.6981	7.7872	0.5756
67.7264	7.8723	0.5788
67.7547	8.3404	0.5957
67.7829	8.0000	0.5835
67.8112	7.1064	0.5499
67.8395	7.1489	0.5516
67.8677	7.9149	0.5803
67.8960	7.2766	0.5565
67.9243	8.1277	0.5881
67.9525	7.4043	0.5613
67.9808	7.0213	0.5466
68.0091	7.1064	0.5499
68.0373	6.7234	0.5349
68.0656	6.2979	0.5177
68.0939	8.0000	0.5835
68.1221	6.2128	0.5142
68.1504	7.4468	0.5629
68.1787	8.3404	0.5957
68.2069	7.4468	0.5629
68.2352	7.8723	0.5788
68.2634	7.0638	0.5483
68.2917	7.7447	0.5741
68.3200	7.2917	0.5512
68.3482	8.1250	0.5818
68.3765	7.9583	0.5758
68.4048	7.9167	0.5743
68.4330	8.0833	0.5803
68.4613	7.9167	0.5743
68.4896	7.5102	0.5537
68.5178	8.0408	0.5729
68.5461	8.4082	0.5858
68.5744	7.5510	0.5552
68.6026	8.1633	0.5772
68.6309	6.6531	0.5211
68.6592	7.7551	0.5626
68.6874	6.9388	0.5322
68.7157	7.4286	0.5506
68.7440	8.0408	0.5729
68.7722	7.8367	0.5656
68.8005	8.4490	0.5872
68.8288	9.0204	0.6068
68.8570	7.7143	0.5611
68.8853	8.2041	0.5787
68.9136	7.0612	0.5369
68.9418	7.6327	0.5582
68.9701	8.4082	0.5858
68.9984	7.4694	0.5522
69.0266	8.9388	0.6040
69.0549	9.1020	0.6095
69.0831	8.1224	0.5758
69.1114	8.2041	0.5787
69.1397	8.0816	0.5743
69.1679	8.4490	0.5872
69.1962	9.9184	0.6363
69.2245	7.3469	0.5476
69.2527	8.4490	0.5872
69.2810	9.3061	0.6163
69.3093	8.4898	0.5887
69.3375	8.4490	0.5872
69.3658	9.0204	0.6068
69.3941	9.1837	0.6122
69.4223	9.5102	0.6230
69.4506	8.2857	0.5815
69.4789	8.8571	0.6013
69.5071	8.2400	0.5741
69.5354	10.3600	0.6437
69.5637	11.3600	0.6741
69.5919	11.4800	0.6776
69.6202	11.4000	0.6753
69.6485	9.6000	0.6197
69.6767	10.4400	0.6462
69.7050	10.2745	0.6348
69.7333	9.2157	0.6012
69.7615	9.7255	0.6176
69.7898	9.8431	0.6213
69.8181	10.1961	0.6323
69.8463	10.3922	0.6384
69.8746	9.8824	0.6225
69.9028	8.8627	0.5895
69.9311	9.1765	0.5999
69.9594	7.8824	0.5560
69.9876	8.5098	0.5777
70.0159	9.6471	0.6151
70.0442	8.7059	0.5843
70.0724	7.8431	0.5546
70.1007	7.9216	0.5574
70.1290	8.5882	0.5803
70.1572	7.9608	0.5587
70.1855	8.3529	0.5723
70.2138	7.7647	0.5518
70.2420	9.3333	0.6050
70.2703	8.5098	0.5777
70.2986	8.3137	0.5710
70.3268	9.1373	0.5986
70.3551	8.8627	0.5895
70.3834	9.0196	0.5947
70.4116	7.9608	0.5587
70.4399	8.5098	0.5777
70.4682	8.9804	0.5934
70.4964	8.9020	0.5908
70.5247	8.9020	0.5908
70.5530	8.4706	0.5764
70.5812	8.8235	0.5882
70.6095	8.2745	0.5696
70.6378	10.1176	0.6299
70.6660	10.1538	0.6249
70.6943	10.0385	0.6214
70.7226	9.6154	0.6081
70.7508	9.1538	0.5934
70.7791	9.3077	0.5983
70.8073	9.4231	0.6020
70.8356	9.5385	0.6057
70.8639	10.3077	0.6296
70.8921	10.3462	0.6308
70.9204	10.8846	0.6470
70.9487	10.9434	0.6426
70.9769	11.0566	0.6459
71.0052	10.7547	0.6371
71.0335	11.0189	0.6448
71.0617	10.6415	0.6337
71.0900	10.9434	0.6426
71.1183	11.2075	0.6503
71.1465	12.2264	0.6792
71.1748	12.6792	0.6917
71.2031	12.9057	0.6979
71.2313	13.2830	0.7080
71.2596	11.8113	0.6676
71.2879	13.2075	0.7060
71.3161	14.3019	0.7346
71.3444	12.7925	0.6948
71.3727	16.6415	0.7925
71.4009	15.3962	0.7622
71.4292	16.3396	0.7852
71.4575	16.0377	0.7779
71.4857	17.3585	0.8093
71.5140	18.8302	0.8430
71.5423	18.4151	0.8336
71.5705	18.3774	0.8328
71.5988	20.9057	0.8882
71.6270	22.4528	0.9205
71.6553	23.1698	0.9351
71.6836	23.5094	0.9419
71.7118	26.9057	1.0076
71.7401	27.0943	1.0112
71.7684	30.2264	1.0680
71.7966	29.0566	1.0471
71.8249	32.1852	1.0918
71.8532	31.7037	1.0836
71.8814	32.7037	1.1006
71.9097	34.2222	1.1258
71.9380	36.8519	1.1683
71.9662	37.8148	1.1834
71.9945	41.2222	1.2356
72.0228	42.5185	1.2549
72.0510	41.6296	1.2417
72.0793	44.2593	1.2803
72.1076	48.3333	1.3380
72.1358	45.4444	1.2974
72.1641	48.5455	1.3286
72.1924	48.8364	1.3326
72.2206	48.2545	1.3247
72.2489	51.2364	1.3650
72.2772	53.9273	1.4004
72.3054	51.4545	1.3679
72.3337	51.8182	1.3727
72.3620	51.7455	1.3717
72.3902	54.2545	1.4046
72.4185	54.4727	1.4074
72.4468	54.0000	1.4013
72.4750	51.9636	1.3746
72.5033	50.8000	1.3591
72.5315	48.1818	1.3237
72.5598	47.8545	1.3192
72.5881	42.4364	1.2422
72.6163	43.2000	1.2534
72.6446	39.8909	1.2044
72.6729	36.1818	1.1470
72.7011	33.6000	1.1054
72.7294	31.6364	1.0726
72.7577	28.6545	1.0208
72.7859	25.4909	0.9628
72.8142	24.7636	0.9489
72.8425	23.6727	0.9278
72.8707	22.3273	0.9011
72.8990	21.1273	0.8765
72.9273	20.6909	0.8674
72.9555	19.8182	0.8489
72.9838	17.2364	0.7917
73.0121	17.7500	0.7962
73.0403	17.9286	0.8002
73.0686	15.7500	0.7500
73.0969	16.3214	0.7635
73.1251	14.9643	0.7311
73.1534	15.0357	0.7328
73.1817	13.7500	0.7008
73.2099	14.7143	0.7249
73.2382	15.0000	0.7319
73.2665	12.2500	0.6614
73.2947	12.7143	0.6739
73.3230	10.7500	0.6196
73.3512	11.4286	0.6389
73.3795	10.1404	0.5965
73.4078	10.9825	0.6208
73.4360	10.7368	0.6138
73.4643	9.7544	0.5850
73.4926	10.2456	0.5996
73.5208	8.5263	0.5470
73.5491	9.4386	0.5755
73.5774	9.1228	0.5658
73.6056	9.1930	0.5679
73.6339	8.2456	0.5379
73.6622	9.7544	0.5850
73.6904	9.2982	0.5712
73.7187	8.8772	0.5581
73.7470	8.5614	0.5481
73.7752	8.1404	0.5344
73.8035	7.8246	0.5240
73.8318	8.0000	0.5298
73.8600	8.4211	0.5436
73.8883	7.7544	0.5216
73.9166	7.7544	0.5216
73.9448	7.8246	0.5240
73.9731	8.0000	0.5298
74.0014	8.3860	0.5424
74.0296	8.2105	0.5367
74.0579	7.6140	0.5169
74.0862	8.0000	0.5298
74.1144	8.0702	0.5321
74.1427	7.8596	0.5251
74.1709	8.3448	0.5364
74.1992	8.3793	0.5375
74.2275	8.3103	0.5353
74.2557	8.2069	0.5320
74.2840	8.4138	0.5386
74.3123	7.4828	0.5080
74.3405	7.9310	0.5230
74.3688	8.1379	0.5297
74.3971	7.7241	0.5161
74.4253	7.6207	0.5126
74.4536	8.5172	0.5419
74.4819	7.8966	0.5218
74.5101	8.1034	0.5286
74.5384	8.0000	0.5252
74.5667	7.9655	0.5241
74.5949	8.4138	0.5386
74.6232	7.4576	0.5028
74.6515	8.2034	0.5273
74.6797	8.8136	0.5466
74.7080	8.2373	0.5284
74.7363	8.1356	0.5252
74.7645	8.3051	0.5306
74.7928	8.2712	0.5295
74.8211	8.6780	0.5424
74.8493	7.9661	0.5197
74.8776	7.3898	0.5005
74.9059	8.6102	0.5403
74.9341	7.8305	0.5152
74.9624	7.9322	0.5185
74.9907	8.3051	0.5306
75.0189	7.6949	0.5107
75.0472	7.4576	0.5028
75.0754	7.8983	0.5174
75.1037	7.7288	0.5119
75.1320	7.2881	0.4970
75.1602	7.5593	0.5062
75.1885	7.4915	0.5039
75.2168	8.1356	0.5252
75.2450	8.3729	0.5328
75.2733	7.5932	0.5073
75.3016	7.2881	0.4970
75.3298	8.1017	0.5241
75.3581	7.7667	0.5088
75.3864	8.0000	0.5164
75.4146	7.5333	0.5011
75.4429	8.4000	0.5292
75.4712	8.5667	0.5344
75.4994	7.3333	0.4944
75.5277	7.6333	0.5044
75.5560	6.8333	0.4773
75.5842	7.1333	0.4876
75.6125	7.2000	0.4899
75.6408	7.6000	0.5033
75.6690	7.6333	0.5044
75.6973	8.2667	0.5249
75.7256	8.0333	0.5175
75.7538	7.0333	0.4842
75.7821	7.6333	0.5044
75.8104	7.2000	0.4899
75.8386	8.5902	0.5307
75.8669	7.2787	0.4885
75.8951	7.8033	0.5058
75.9234	7.3115	0.4896
75.9517	7.7705	0.5047
75.9799	7.9344	0.5100
76.0082	7.2131	0.4863
76.0365	8.3934	0.5246
76.0647	7.5410	0.4972
76.0930	8.0984	0.5153
76.1213	8.2623	0.5205
76.1495	8.0328	0.5132
76.1778	7.6066	0.4994
76.2061	7.6393	0.5005
76.2343	7.5738	0.4983
76.2626	7.8033	0.5058
76.2909	8.7213	0.5347
76.3191	8.0656	0.5142
76.3474	7.2787	0.4885
76.3757	7.7377	0.5037
76.4039	6.9180	0.4763
76.4322	8.1639	0.5174
76.4605	8.2295	0.5194
76.4887	8.0328	0.5132
76.5170	8.3548	0.5191
76.5453	8.3871	0.5201
76.5735	7.8710	0.5039
76.6018	8.2581	0.5161
76.6301	8.3548	0.5191
76.6583	8.9032	0.5359
76.6866	7.7419	0.4997
76.7149	7.9032	0.5049
76.7431	8.4839	0.5231
76.7714	8.3548	0.5191
76.7996	8.5161	0.5241
76.8279	8.5484	0.5251
76.8562	9.1613	0.5436
76.8844	8.7097	0.5301
76.9127	8.8065	0.5330
76.9410	8.2903	0.5171
76.9692	8.7742	0.5320
76.9975	8.4516	0.5221
77.0258	8.4516	0.5221
77.0540	8.9355	0.5369
77.0823	9.0794	0.5369
77.1106	7.6825	0.4939
77.1388	8.4127	0.5168
77.1671	8.9206	0.5322
77.1954	8.3810	0.5158
77.2236	7.5556	0.4898
77.2519	8.1270	0.5079
77.2802	7.8413	0.4989
77.3084	7.2381	0.4794
77.3367	8.2540	0.5119
77.3650	7.6825	0.4939
77.3932	7.6825	0.4939
77.4215	7.3968	0.4846
77.4498	6.4444	0.4523
77.4780	7.7460	0.4959
77.5063	7.7460	0.4959
77.5346	7.7143	0.4949
77.5628	6.7937	0.4644
77.5911	8.2540	0.5119
77.6193	7.7143	0.4949
77.6476	7.5556	0.4898
77.6759	6.5079	0.4545
77.7041	7.4688	0.4831
77.7324	7.8125	0.4941
77.7607	7.6563	0.4891
77.7889	7.3438	0.4791
77.8172	7.7813	0.4931
77.8455	7.3125	0.4780
77.8737	6.5938	0.4539
77.9020	7.4063	0.4811
77.9303	7.0625	0.4698
77.9585	7.9375	0.4980
77.9868	7.5938	0.4871
78.0151	7.5313	0.4851
78.0433	7.5938	0.4871
78.0716	7.3438	0.4791
78.0999	6.9063	0.4646
78.1281	6.9063	0.4646
78.1564	7.9688	0.4990
78.1847	7.5625	0.4861
78.2129	6.9063	0.4646
78.2412	8.5000	0.5154
78.2695	7.4063	0.4811
78.2977	7.6000	0.4836
78.3260	6.9231	0.4615
78.3543	8.0923	0.4990
78.3825	7.6000	0.4836
78.4108	7.7538	0.4884
78.4390	7.6615	0.4855
78.4673	8.2462	0.5037
78.4956	7.2923	0.4737
78.5238	8.0923	0.4990
78.5521	7.0154	0.4646
78.5804	8.6154	0.5149
78.6086	7.9077	0.4933
78.6369	7.5077	0.4806
78.6652	7.3538	0.4757
78.6934	7.5077	0.4806
78.7217	7.9077	0.4933
78.7500	7.5385	0.4816
78.7782	7.8462	0.4913
78.8065	6.8308	0.4585
78.8348	8.5231	0.5121
78.8630	7.8788	0.4886
78.8913	7.6667	0.4820
78.9196	7.2121	0.4675
78.9478	7.6667	0.4820
78.9761	6.3333	0.4381
79.0044	8.0909	0.4952
79.0326	7.6970	0.4830
79.0609	8.9091	0.5196
79.0892	8.2121	0.4989
79.1174	7.6667	0.4820
79.1457	8.4242	0.5053
79.1740	6.7273	0.4515
79.2022	8.0000	0.4924
79.2305	7.3333	0.4714
79.2588	8.6970	0.5134
79.2870	7.6061	0.4801
79.3153	7.4848	0.4762
79.3435	8.1818	0.4979
79.3718	8.3333	0.5025
79.4001	6.4848	0.4433
79.4283	6.4545	0.4423
79.4566	7.7273	0.4839
79.4849	7.9091	0.4896
79.5131	7.5758	0.4791
79.5414	7.4925	0.4729
79.5697	7.5224	0.4739
79.5979	6.9552	0.4557
79.6262	7.3433	0.4682
79.6545	7.7910	0.4823
79.6827	8.0000	0.4887
79.7110	7.5522	0.4748
79.7393	7.2537	0.4653
79.7675	6.7164	0.4478
79.7958	6.6866	0.4468
79.8241	7.6119	0.4767
79.8523	6.3582	0.4357
79.8806	7.6716	0.4785
79.9089	7.7015	0.4795
79.9371	7.9403	0.4869
79.9654	7.2537	0.4653
79.9937	8.1194	0.4923
80.0219	7.3731	0.4691
80.0502	7.5000	0.4697
80.0785	7.3529	0.4650
80.1067	7.6471	0.4743
80.1350	7.4412	0.4678
80.1632	6.8824	0.4499
80.1915	6.6176	0.4412
80.2198	7.5882	0.4724
80.2480	7.6765	0.4752
80.2763	8.2941	0.4939
80.3046	8.4118	0.4974
80.3328	7.7353	0.4770
80.3611	7.7353	0.4770
80.3894	6.7647	0.4461
80.4176	7.5000	0.4697
80.4459	7.9706	0.4842
80.4742	7.3529	0.4650
80.5024	7.4706	0.4687
80.5307	7.8529	0.4806
80.5590	7.0588	0.4556
80.5872	7.9118	0.4824
80.6155	8.7647	0.5077
80.6438	8.0294	0.4860
80.6720	7.5882	0.4724
80.7003	9.1471	0.5187
80.7286	7.8529	0.4806
80.7568	7.9130	0.4789
80.7851	8.0290	0.4824
80.8134	7.9710	0.4807
80.8416	7.7971	0.4754
80.8699	7.6232	0.4701
80.8982	7.8261	0.4763
80.9264	8.2029	0.4876
80.9547	8.2899	0.4902
80.9830	8.4058	0.4936
81.0112	7.1594	0.4555
81.0395	8.9275	0.5087
81.0677	8.6087	0.4995
81.0960	8.2609	0.4893
81.1243	8.3188	0.4910
81.1525	7.9130	0.4789
81.1808	8.6377	0.5004
81.2091	6.5714	0.4333
81.2373	7.5143	0.4634
81.2656	8.0571	0.4798
81.2939	8.3429	0.4882
81.3221	8.0857	0.4806
81.3504	7.4286	0.4607
81.3787	7.6857	0.4686
81.4069	8.1714	0.4832
81.4352	7.6857	0.4686
81.4635	8.2286	0.4849
81.4917	8.3429	0.4882
81.5200	8.6571	0.4973
81.5483	7.4571	0.4616
81.5765	8.0286	0.4789
81.6048	7.5714	0.4651
81.6331	8.1143	0.4815
81.6613	7.2286	0.4545
81.6896	7.4571	0.4616
81.7179	7.6571	0.4677
81.7461	8.4571	0.4916
81.7744	8.3429	0.4882
81.8027	8.5714	0.4949
81.8309	8.5714	0.4949
81.8592	7.9429	0.4764
81.8874	8.0000	0.4781
81.9157	7.9714	0.4772
81.9440	8.2000	0.4840
81.9722	8.6000	0.4957
82.0005	8.2817	0.4830
82.0288	8.0563	0.4764
82.0570	8.1690	0.4797
82.0853	7.1549	0.4489
82.1136	7.6338	0.4637
82.1418	7.9155	0.4722
82.1701	7.9718	0.4739
82.1984	8.8732	0.5000
82.2266	7.4085	0.4568
82.2549	7.4366	0.4577
82.2832	8.8451	0.4992
82.3114	8.4507	0.4879
82.3397	8.2817	0.4830
82.3680	8.5070	0.4895
82.3962	8.1111	0.4747
82.4245	8.3056	0.4803
82.4528	9.0556	0.5015
82.4810	8.3056	0.4803
82.5093	8.5278	0.4867
82.5376	7.5000	0.4564
82.5658	8.2500	0.4787
82.5941	8.0556	0.4730
82.6224	8.7222	0.4922
82.6506	8.5000	0.4859
82.6789	8.7222	0.4922
82.7071	9.3611	0.5099
82.7354	9.5833	0.5159
82.7637	8.7778	0.4938
82.7919	8.1944	0.4771
82.8202	8.2778	0.4795
82.8485	8.2778	0.4795
82.8767	8.4722	0.4851
82.9050	8.5833	0.4883
82.9333	8.5278	0.4867
82.9615	8.6111	0.4891
82.9898	9.0278	0.5008
83.0181	8.8056	0.4946
83.0463	8.8889	0.4969
83.0746	8.9722	0.4992
83.1029	8.1389	0.4755
83.1311	8.7778	0.4938
83.1594	7.8333	0.4665
83.1877	9.4444	0.5122
83.2159	9.6438	0.5140
83.2442	8.9589	0.4954
83.2725	8.7671	0.4901
83.3007	9.0137	0.4969
83.3290	8.0000	0.4682
83.3573	7.7808	0.4617
83.3855	9.2329	0.5029
83.4138	9.1507	0.5007
83.4421	8.3562	0.4785
83.4703	8.1096	0.4714
83.4986	10.4384	0.5348
83.5269	10.0000	0.5234
83.5551	8.6216	0.4827
83.5834	9.4595	0.5056
83.6116	9.1892	0.4984
83.6399	8.8108	0.4880
83.6682	8.5946	0.4820
83.6964	9.7297	0.5128
83.7247	8.5946	0.4820
83.7530	9.4324	0.5049
83.7812	10.3784	0.5296
83.8095	9.9189	0.5178
83.8378	9.3514	0.5027
83.8660	9.8919	0.5171
83.8943	9.2162	0.4991
83.9226	9.1892	0.4984
83.9508	10.3514	0.5289
83.9791	9.7297	0.5128
84.0074	10.8378	0.5412
84.0356	10.2973	0.5275
84.0639	10.2432	0.5262
84.0922	10.3784	0.5296
84.1204	10.4054	0.5303
84.1487	10.7568	0.5392
84.1770	10.8649	0.5419
84.2052	10.9459	0.5439
84.2335	11.2162	0.5506
84.2618	11.7297	0.5630
84.2900	11.9189	0.5676
84.3183	11.2432	0.5512
84.3466	11.5135	0.5578
84.3748	12.1351	0.5727
84.4031	12.3784	0.5784
84.4313	11.8378	0.5656
84.4596	12.7467	0.5830
84.4879	12.2667	0.5719
84.5161	12.6133	0.5800
84.5444	11.5200	0.5543
84.5727	13.5200	0.6004
84.6009	11.9200	0.5638
84.6292	11.9733	0.5651
84.6575	12.0000	0.5657
84.6857	11.7867	0.5606
84.7140	11.9211	0.5601
84.7423	12.3421	0.5699
84.7705	11.9737	0.5613
84.7988	13.0000	0.5849
84.8271	12.5789	0.5753
84.8553	12.6842	0.5777
84.8836	12.5263	0.5741
84.9119	12.6842	0.5777
84.9401	11.9737	0.5613
84.9684	12.3684	0.5705
84.9967	13.4474	0.5949
85.0249	12.6579	0.5772
85.0532	11.8158	0.5576
85.0815	14.3684	0.6149
85.1097	13.5000	0.5960
85.1380	13.3947	0.5937
85.1663	13.1053	0.5873
85.1945	13.8684	0.6041
85.2228	14.6579	0.6211
85.2511	14.2632	0.6127
85.2793	14.7368	0.6227
85.3076	14.8684	0.6255
85.3358	14.7105	0.6222
85.3641	15.4474	0.6376
85.3924	14.0789	0.6087
85.4206	16.8158	0.6652
85.4489	16.8947	0.6668
85.4772	16.3947	0.6568
85.5054	15.9737	0.6484
85.5337	16.8684	0.6663
85.5620	17.4474	0.6776
85.5902	16.6842	0.6626
85.6185	17.8158	0.6847
85.6468	17.3158	0.6750
85.6750	16.6494	0.6576
85.7033	19.0909	0.7042
85.7316	17.0390	0.6653
85.7598	18.3636	0.6906
85.7881	19.5844	0.7132
85.8164	18.8571	0.6999
85.8446	18.8571	0.6999
85.8729	18.8312	0.6994
85.9012	18.2051	0.6832
85.9294	20.4872	0.7248
85.9577	19.9231	0.7147
85.9860	18.8974	0.6961
86.0142	20.5128	0.7252
86.0425	19.8974	0.7143
86.0708	20.1795	0.7193
86.0990	20.8718	0.7316
86.1273	18.9231	0.6966
86.1555	19.4872	0.7069
86.1838	18.7692	0.6937
86.2121	19.1795	0.7013
86.2403	18.2821	0.6847
86.2686	17.2821	0.6657
86.2969	16.1795	0.6441
86.3251	16.6154	0.6527
86.3534	14.9231	0.6186
86.3817	15.8462	0.6374
86.4099	14.8205	0.6165
86.4382	15.2564	0.6255
86.4665	14.9231	0.6186
86.4947	14.5641	0.6111
86.5230	13.3077	0.5841
86.5513	12.0513	0.5559
86.5795	12.7949	0.5728
86.6078	12.6667	0.5699
86.6361	13.3077	0.5841
86.6643	11.7949	0.5499
86.6926	12.6923	0.5705
86.7209	12.5641	0.5676
86.7491	12.3590	0.5629
86.7774	10.8205	0.5267
86.8057	12.3333	0.5624
86.8339	12.6410	0.5693
86.8622	11.0256	0.5317
86.8905	10.9114	0.5256
86.9187	12.7848	0.5689
86.9470	12.2278	0.5564
86.9752	11.4177	0.5376
87.0035	12.4557	0.5615
87.0318	11.6456	0.5430
87.0600	11.6500	0.5397
87.0883	11.3500	0.5327
87.1166	11.4000	0.5339
87.1448	11.2000	0.5292
87.1731	11.1250	0.5274
87.2014	10.6000	0.5148
87.2296	11.9500	0.5466
87.2579	11.7250	0.5414
87.2862	11.0000	0.5244
87.3144	10.8250	0.5202
87.3427	11.5750	0.5379
87.3710	11.0000	0.5244
87.3992	10.6000	0.5148
87.4275	10.4000	0.5099
87.4558	10.6500	0.5160
87.4840	12.0250	0.5483
87.5123	9.8250	0.4956
87.5406	10.5750	0.5142
87.5688	10.8750	0.5214
87.5971	11.1750	0.5286
87.6254	11.0750	0.5262
87.6536	12.1000	0.5500
87.6819	12.0750	0.5494
87.7102	12.7750	0.5651
87.7384	11.7000	0.5408
87.7667	11.1750	0.5286
87.7950	10.9000	0.5220
87.8232	10.8500	0.5208
87.8515	11.4000	0.5339
87.8797	10.5750	0.5142
87.9080	10.6500	0.5160
87.9363	11.0750	0.5262
87.9645	11.8000	0.5431
87.9928	11.3250	0.5321
88.0211	11.6500	0.5397
88.0493	10.7500	0.5184
88.0776	11.0500	0.5256
88.1059	10.1250	0.5031
88.1341	11.9753	0.5438
88.1624	11.0123	0.5214
88.1907	10.8395	0.5173
88.2189	11.0864	0.5232
88.2472	11.6098	0.5321
88.2755	10.5854	0.5081
88.3037	10.5854	0.5081
88.3320	10.7561	0.5122
88.3603	11.6341	0.5327
88.3885	11.0732	0.5197
88.4168	10.9756	0.5174
88.4451	10.8293	0.5139
88.4733	11.7805	0.5360
88.5016	11.5366	0.5305
88.5299	11.4878	0.5293
88.5581	11.8293	0.5371
88.5864	11.9268	0.5393
88.6147	12.1951	0.5454
88.6429	11.0488	0.5191
88.6712	11.6098	0.5321
88.6994	11.3171	0.5254
88.7277	10.7805	0.5128
88.7560	11.0000	0.5180
88.7842	11.1463	0.5214
88.8125	11.6829	0.5338
88.8408	11.1463	0.5214
88.8690	11.4146	0.5276
88.8973	11.3902	0.5271
88.9256	11.7561	0.5355
88.9538	11.2439	0.5237
88.9821	12.1707	0.5448
89.0104	11.4634	0.5288
89.0386	11.9268	0.5393
89.0669	12.8049	0.5589
89.0952	11.8049	0.5366
89.1234	11.8537	0.5377
89.1517	11.0000	0.5180
89.1800	11.4390	0.5282
89.2082	12.4146	0.5503
89.2365	12.1220	0.5437
89.2648	12.2927	0.5476
89.2930	10.8537	0.5145
89.3213	11.6341	0.5327
89.3496	11.2771	0.5213
89.3778	11.3735	0.5235
89.4061	12.2857	0.5408
89.4344	12.8333	0.5528
89.4626	11.2857	0.5184
89.4909	12.2619	0.5403
89.5192	12.1905	0.5387
89.5474	11.9524	0.5335
89.5757	12.5476	0.5466
89.6039	11.5000	0.5233
89.6322	11.7381	0.5287
89.6605	12.3810	0.5429
89.6887	12.8095	0.5523
89.7170	13.4524	0.5659
89.7453	13.2857	0.5624
89.7735	13.1429	0.5594
89.8018	13.2381	0.5614
89.8301	13.1667	0.5599
89.8583	13.9048	0.5754
89.8866	12.4524	0.5445
89.9149	13.5238	0.5674
89.9431	12.8810	0.5538
89.9714	14.3095	0.5837
89.9997	13.5476	0.5679
90.0279	14.0238	0.5778
90.0562	14.6190	0.5900
90.0845	13.3810	0.5644
90.1127	12.8810	0.5538
90.1410	13.7381	0.5719
90.1693	12.8333	0.5528
90.1975	13.5476	0.5679
90.2258	13.0714	0.5579
90.2541	13.2381	0.5614
90.2823	13.3333	0.5634
90.3106	11.6905	0.5276
90.3389	12.2857	0.5408
90.3671	13.5714	0.5684
90.3954	13.0476	0.5574
90.4236	12.3333	0.5419
90.4519	12.3095	0.5414
90.4802	12.8571	0.5533
90.5084	12.9762	0.5558
90.5367	13.1905	0.5604
90.5650	13.0238	0.5569
90.5932	12.9302	0.5484
90.6215	12.2558	0.5339
90.6498	12.8605	0.5469
90.6780	12.3953	0.5369
90.7063	12.0930	0.5303
90.7346	13.1163	0.5523
90.7628	12.0930	0.5303
90.7911	13.6279	0.5630
90.8194	13.2326	0.5547
90.8476	12.5116	0.5394
90.8759	13.1163	0.5523
90.9042	12.3488	0.5359
90.9324	13.4419	0.5591
90.9607	13.4186	0.5586
90.9890	13.2093	0.5543
91.0172	13.4186	0.5586
91.0455	13.3953	0.5581
91.0738	12.6047	0.5414
91.1020	12.9070	0.5479
91.1303	12.5116	0.5394
91.1586	13.8605	0.5677
91.1868	12.2326	0.5334
91.2151	13.6279	0.5630
91.2433	12.3256	0.5354
91.2716	13.5814	0.5620
91.2999	12.3488	0.5359
91.3281	12.4651	0.5384
91.3564	12.2558	0.5339
91.3847	13.3256	0.5567
91.4129	13.6279	0.5630
91.4412	13.1860	0.5538
91.4695	13.1628	0.5533
91.4977	14.2791	0.5763
91.5260	13.1163	0.5523
91.5543	12.9767	0.5493
91.5825	12.9535	0.5489
91.6108	13.7674	0.5658
91.6391	13.0465	0.5508
91.6673	13.1163	0.5523
91.6956	14.5349	0.5814
91.7239	13.4651	0.5596
91.7521	13.4023	0.5551
91.7804	14.9195	0.5856
91.8087	13.7955	0.5599
91.8369	14.5227	0.5745
91.8652	14.0682	0.5654
91.8935	13.2045	0.5478
91.9217	13.0682	0.5450
91.9500	12.9545	0.5426
91.9783	13.9773	0.5636
92.0065	12.6364	0.5359
92.0348	13.8636	0.5613
92.0631	13.5000	0.5539
92.0913	13.9545	0.5632
92.1196	13.1818	0.5473
92.1478	12.6818	0.5369
92.1761	13.6136	0.5562
92.2044	13.3409	0.5506
92.2326	13.9773	0.5636
92.2609	13.7045	0.5581
92.2892	13.3864	0.5516
92.3174	12.9091	0.5417
92.3457	14.2727	0.5695
92.3740	14.1364	0.5668
92.4022	13.4773	0.5534
92.4305	13.6136	0.5562
92.4588	13.9773	0.5636
92.4870	13.2045	0.5478
92.5153	15.3182	0.5900
92.5436	14.0227	0.5645
92.5718	13.8864	0.5618
92.6001	14.2955	0.5700
92.6284	14.1591	0.5673
92.6566	13.5909	0.5558
92.6849	14.5909	0.5759
92.7132	14.9318	0.5825
92.7414	14.7045	0.5781
92.7697	14.0909	0.5659
92.7980	15.1136	0.5861
92.8262	15.2045	0.5878
92.8545	14.7727	0.5794
92.8828	14.9773	0.5834
92.9110	14.7727	0.5794
92.9393	13.7978	0.5568
92.9675	13.2809	0.5463
92.9958	15.9551	0.5988
93.0241	13.8876	0.5586
93.0523	15.0000	0.5774
93.0806	14.5778	0.5692
93.1089	15.2000	0.5812
93.1371	15.5333	0.5875
93.1654	14.9333	0.5761
93.1937	15.8444	0.5934
93.2219	15.1556	0.5803
93.2502	14.4667	0.5670
93.2785	14.1778	0.5613
93.3067	15.3333	0.5837
93.3350	14.2222	0.5622
93.3633	13.5333	0.5484
93.3915	14.5778	0.5692
93.4198	15.7111	0.5909
93.4481	14.6667	0.5709
93.4763	16.3111	0.6021
93.5046	15.4222	0.5854
93.5329	15.3556	0.5842
93.5611	15.1556	0.5803
93.5894	15.6000	0.5888
93.6177	15.8889	0.5942
93.6459	15.4222	0.5854
93.6742	15.0222	0.5778
93.7025	15.5556	0.5879
93.7307	14.4222	0.5661
93.7590	14.3111	0.5639
93.7872	15.3556	0.5842
93.8155	15.1778	0.5808
93.8438	15.4222	0.5854
93.8720	14.3111	0.5639
93.9003	16.1778	0.5996
93.9286	15.0222	0.5778
93.9568	15.4444	0.5858
93.9851	14.7333	0.5722
94.0134	14.5111	0.5679
94.0416	15.9333	0.5950
94.0699	14.4667	0.5670
94.0982	15.5165	0.5840
94.1264	15.2088	0.5782
94.1547	15.4505	0.5827
94.1830	14.2637	0.5599
94.2112	14.8571	0.5714
94.2395	15.6044	0.5856
94.2678	15.7174	0.5845
94.2960	14.8261	0.5677
94.3243	14.5000	0.5614
94.3526	15.4783	0.5801
94.3808	14.2174	0.5559
94.4091	15.4348	0.5793
94.4374	14.7609	0.5665
94.4656	15.0435	0.5719
94.4939	14.4783	0.5610
94.5222	15.6957	0.5841
94.5504	15.0652	0.5723
94.5787	16.2174	0.5938
94.6070	14.9783	0.5706
94.6352	15.3913	0.5784
94.6635	15.1957	0.5748
94.6917	15.6739	0.5837
94.7200	14.5870	0.5631
94.7483	16.1304	0.5922
94.7765	14.7391	0.5661
94.8048	15.7391	0.5849
94.8331	15.3261	0.5772
94.8613	16.0000	0.5898
94.8896	15.3261	0.5772
94.9179	15.5652	0.5817
94.9461	14.7174	0.5656
94.9744	14.6957	0.5652
95.0027	16.9348	0.6068
95.0309	15.3261	0.5772
95.0592	15.6087	0.5825
95.0875	16.2391	0.5942
95.1157	14.5217	0.5619
95.1440	16.5870	0.6005
95.1723	14.7174	0.5656
95.2005	16.1304	0.5922
95.2288	16.3696	0.5965
95.2571	16.3478	0.5961
95.2853	16.4086	0.5940
95.3136	15.6559	0.5802
95.3419	15.8495	0.5838
95.3701	15.8710	0.5842
95.3984	15.1183	0.5702
95.4267	16.3011	0.5921
95.4549	16.3011	0.5921
95.4832	15.4839	0.5770
95.5114	17.2766	0.6063
95.5397	16.2553	0.5881
95.5680	15.9574	0.5827
95.5962	15.6383	0.5768
95.6245	17.0000	0.6014
95.6528	17.1489	0.6040
95.6810	15.5957	0.5760
95.7093	15.4043	0.5725
95.7376	16.6383	0.5950
95.7658	16.1064	0.5854
95.7941	16.2553	0.5881
95.8224	16.7234	0.5965
95.8506	14.7872	0.5609
95.8789	17.5745	0.6115
95.9072	15.3617	0.5717
95.9354	15.6383	0.5768
95.9637	15.8723	0.5811
95.9920	16.4255	0.5912
96.0202	17.9787	0.6185
96.0485	15.2340	0.5693
96.0768	16.5957	0.5942
96.1050	16.2340	0.5877
96.1333	15.6596	0.5772
96.1616	17.2553	0.6059
96.1898	16.1915	0.5869
96.2181	16.4255	0.5912
96.2464	17.5319	0.6108
96.2746	16.6170	0.5946
96.3029	15.7872	0.5796
96.3312	16.0213	0.5838
96.3594	18.2766	0.6236
96.3877	17.4255	0.6089
96.4159	16.5745	0.5938
96.4442	15.4947	0.5711
96.4725	16.8211	0.5951
96.5007	16.4842	0.5891
96.5290	16.0211	0.5808
96.5573	15.9368	0.5792
96.5855	16.3789	0.5872
96.6138	16.1474	0.5830
96.6421	15.7053	0.5750
96.6703	17.0947	0.5999
96.6986	16.9474	0.5973
96.7269	16.6042	0.5881
96.7551	16.5000	0.5863
96.7834	16.9375	0.5940
96.8117	17.1667	0.5980
96.8399	16.7917	0.5915
96.8682	16.8125	0.5918
96.8965	16.9792	0.5948
96.9247	15.3333	0.5652
96.9530	15.7917	0.5736
96.9813	17.5208	0.6042
97.0095	17.1250	0.5973
97.0378	16.7917	0.5915
97.0661	15.9375	0.5762
97.0943	16.7708	0.5911
97.1226	17.9167	0.6110
97.1509	16.8542	0.5926
97.1791	16.7292	0.5904
97.2074	16.3333	0.5833
97.2356	17.6458	0.6063
97.2639	16.4167	0.5848
97.2922	16.9375	0.5940
97.3204	18.4375	0.6198
97.3487	17.3542	0.6013
97.3770	15.6250	0.5705
97.4052	18.0625	0.6134
97.4335	17.2917	0.6002
97.4618	17.6250	0.6060
97.4900	17.2500	0.5995
97.5183	17.6667	0.6067
97.5466	17.9167	0.6110
97.5748	17.9583	0.6117
97.6031	18.0825	0.6106
97.6314	18.0619	0.6103
97.6596	17.3608	0.5983
97.6879	19.2577	0.6301
97.7162	18.0206	0.6096
97.7444	18.1649	0.6120
97.7727	17.5258	0.6011
97.8010	17.7732	0.6054
97.8292	18.3299	0.6148
97.8575	19.3196	0.6311
97.8858	18.8454	0.6233
97.9140	19.4845	0.6338
97.9423	18.7216	0.6213
97.9706	20.5714	0.6479
97.9988	19.0816	0.6240
98.0271	17.4694	0.5971
98.0553	19.1224	0.6247
98.0836	20.3061	0.6437
98.1119	19.9592	0.6382
98.1401	19.9592	0.6382
98.1684	18.3469	0.6119
98.1967	19.6122	0.6327
98.2249	19.4898	0.6307
98.2532	21.0816	0.6559
98.2815	22.4898	0.6775
98.3097	20.8571	0.6524
98.3380	21.7551	0.6663
98.3663	21.3061	0.6594
98.3945	21.4082	0.6610
98.4228	22.4286	0.6766
98.4511	21.4898	0.6622
98.4793	22.4082	0.6762
98.5076	21.3061	0.6594
98.5359	22.2857	0.6744
98.5641	22.7143	0.6809
98.5924	22.3265	0.6750
98.6207	23.5918	0.6939
98.6489	23.0000	0.6851
98.6772	22.6939	0.6805
98.7055	22.6122	0.6793
98.7337	23.5918	0.6939
98.7620	24.8776	0.7125
98.7903	23.0816	0.6863
98.8185	22.6327	0.6796
98.8468	24.4490	0.7064
98.8751	23.3061	0.6897
98.9033	26.1224	0.7301
98.9316	24.3061	0.7043
98.9598	23.6939	0.6954
98.9881	24.6122	0.7087
99.0164	25.1919	0.7134
99.0446	26.1212	0.7264
99.0729	25.5960	0.7191
99.1012	25.0707	0.7117
99.1294	25.7576	0.7214
99.1577	25.2525	0.7142
99.1860	25.0200	0.7074
99.2142	25.4800	0.7139
99.2425	27.1000	0.7362
99.2708	26.2600	0.7247
99.2990	26.0200	0.7214
99.3273	26.3400	0.7258
99.3556	27.0000	0.7348
99.3838	26.8000	0.7321
99.4121	27.5000	0.7416
99.4404	26.9800	0.7346
99.4686	28.3600	0.7531
99.4969	27.7400	0.7448
99.5252	26.6000	0.7294
99.5534	26.4600	0.7275
99.5817	25.0600	0.7080
99.6100	25.5400	0.7147
99.6382	25.7800	0.7181
99.6665	24.0600	0.6937
99.6948	25.1600	0.7094
99.7230	24.0200	0.6931
99.7513	23.4600	0.6850
99.7795	23.3000	0.6826
99.8078	23.8400	0.6905
99.8361	23.9800	0.6925
99.8643	21.6400	0.6579
99.8926	23.3000	0.6826
99.9209	22.2000	0.6663
99.9491	21.4800	0.6554
99.9774	21.9000	0.6618
100.0057	20.3800	0.6384
100.0339	19.0000	0.6164
100.0622	20.1000	0.6340
100.0905	20.1000	0.6340
100.1187	18.8200	0.6135
100.1470	19.2800	0.6210
100.1753	19.2200	0.6200
100.2035	19.9600	0.6318
100.2318	18.7000	0.6116
100.2601	19.4200	0.6232
100.2883	19.7400	0.6283
100.3166	19.9000	0.6309
100.3449	18.3600	0.6060
100.3731	17.9000	0.5983
100.4014	19.3663	0.6193
100.4297	18.9608	0.6097
100.4579	17.9804	0.5938
100.4862	18.7451	0.6063
100.5145	19.3529	0.6160
100.5427	18.6863	0.6053
100.5710	17.9020	0.5925
100.5993	17.6078	0.5876
100.6275	17.9412	0.5931
100.6558	19.1176	0.6123
100.6840	18.1569	0.5967
100.7123	18.9804	0.6101
100.7406	17.9216	0.5928
100.7688	18.8235	0.6075
100.7971	17.2549	0.5817
100.8254	18.6078	0.6040
100.8536	18.4118	0.6008
100.8819	18.0000	0.5941
100.9102	18.7843	0.6069
100.9384	18.5882	0.6037
100.9667	17.9608	0.5934
100.9950	18.6667	0.6050
101.0232	18.6863	0.6053
101.0515	18.1765	0.5970
101.0798	18.8431	0.6078
101.1080	18.6667	0.6050
101.1363	18.0392	0.5947
101.1646	18.6471	0.6047
101.1928	19.0980	0.6119
101.2211	17.4314	0.5846
101.2494	18.9216	0.6091
101.2776	18.6471	0.6047
101.3059	17.4510	0.5850
101.3342	17.6863	0.5889
101.3624	17.8627	0.5918
101.3907	19.2157	0.6138
101.4190	18.7451	0.6063
101.4472	17.9804	0.5938
101.4755	19.5294	0.6188
101.5037	18.2549	0.5983
101.5320	18.7843	0.6069
101.5603	18.6667	0.6050
101.5885	18.0196	0.5944
101.6168	17.6863	0.5889
101.6451	18.7255	0.6059
101.6733	18.9412	0.6094
101.7016	17.9020	0.5925
101.7299	19.4706	0.6179
101.7581	18.0980	0.5957
101.7864	18.9020	0.6088
101.8147	17.7059	0.5892
101.8429	18.6214	0.6013
101.8712	17.9038	0.5868
101.8995	18.5000	0.5965
101.9277	18.4423	0.5955
101.9560	17.4231	0.5788
101.9843	18.5385	0.5971
102.0125	17.8269	0.5855
102.0408	19.3269	0.6096
102.0691	18.7115	0.5999
102.0973	18.4231	0.5952
102.1256	19.1923	0.6075
102.1539	18.5192	0.5968
102.1821	19.6346	0.6145
102.2104	18.8077	0.6014
102.2387	19.4423	0.6115
102.2669	19.0385	0.6051
102.2952	18.9231	0.6032
102.3234	19.6538	0.6148
102.3517	18.9231	0.6032
102.3800	19.7308	0.6160
102.4082	18.8077	0.6014
102.4365	17.7500	0.5842
102.4648	19.2500	0.6084
102.4930	19.1154	0.6063
102.5213	18.2115	0.5918
102.5496	18.4423	0.5955
102.5778	18.9615	0.6039
102.6061	18.2308	0.5921
102.6344	17.9808	0.5880
102.6626	19.0385	0.6051
102.6909	19.4808	0.6121
102.7192	18.9231	0.6032
102.7474	19.0385	0.6051
102.7757	19.1923	0.6075
102.8040	19.4615	0.6118
102.8322	19.8077	0.6172
102.8605	19.7308	0.6160
102.8888	18.0962	0.5899
102.9170	19.0962	0.6060
102.9453	18.0000	0.5883
102.9736	18.8269	0.6017
103.0018	19.3269	0.6096
103.0301	18.3654	0.5943
103.0584	18.5000	0.5965
103.0866	19.4231	0.6112
103.1149	18.4808	0.5962
103.1432	19.2692	0.6087
103.1714	17.5000	0.5801
103.1997	18.7115	0.5999
103.2279	18.1731	0.5912
103.2562	18.4952	0.5935
103.2845	18.6667	0.5963
103.3127	18.0762	0.5868
103.3410	18.5849	0.5922
103.3693	18.4906	0.5907
103.3975	18.4340	0.5898
103.4258	18.7170	0.5943
103.4541	18.6792	0.5937
103.4823	18.0755	0.5840
103.5106	18.4717	0.5904
103.5389	19.1509	0.6011
103.5671	18.6415	0.5931
103.5954	18.6226	0.5928
103.6237	16.3774	0.5559
103.6519	17.5283	0.5751
103.6802	18.4340	0.5898
103.7085	19.3774	0.6047
103.7367	17.9245	0.5815
103.7650	19.0943	0.6002
103.7933	17.8302	0.5800
103.8215	18.1698	0.5855
103.8498	18.4906	0.5907
103.8781	18.7358	0.5946
103.9063	18.2453	0.5867
103.9346	18.1321	0.5849
103.9629	17.4340	0.5735
103.9911	18.5660	0.5919
104.0194	17.9623	0.5822
104.0476	18.4340	0.5898
104.0759	17.4906	0.5745
104.1042	18.6038	0.5925
104.1324	18.0000	0.5828
104.1607	18.0943	0.5843
104.1890	17.4340	0.5735
104.2172	18.7925	0.5955
104.2455	18.4717	0.5904
104.2738	18.6981	0.5940
104.3020	17.5283	0.5751
104.3303	18.3774	0.5888
104.3586	17.5660	0.5757
104.3868	18.0377	0.5834
104.4151	18.6415	0.5931
104.4434	18.7170	0.5943
104.4716	18.3774	0.5888
104.4999	18.4528	0.5901
104.5282	17.4340	0.5735
104.5564	18.3208	0.5879
104.5847	17.8679	0.5806
104.6130	18.3962	0.5892
104.6412	17.2075	0.5698
104.6695	18.3551	0.5857
104.6978	18.2056	0.5833
104.7260	17.7944	0.5767
104.7543	17.9252	0.5788
104.7826	17.2897	0.5685
104.8108	18.0741	0.5785
104.8391	19.1481	0.5955
104.8674	18.1667	0.5800
104.8956	18.0370	0.5779
104.9239	18.4259	0.5841
104.9521	18.4444	0.5844
104.9804	18.4630	0.5847
105.0087	19.1667	0.5958
105.0369	18.5556	0.5862
105.0652	17.6667	0.5720
105.0935	17.2963	0.5660
105.1217	19.1111	0.5949
105.1500	18.3889	0.5836
105.1783	17.9815	0.5771
105.2065	18.3519	0.5830
105.2348	18.1296	0.5794
105.2631	17.9630	0.5768
105.2913	18.1296	0.5794
105.3196	18.3889	0.5836
105.3479	17.7407	0.5732
105.3761	17.6852	0.5723
105.4044	17.8519	0.5750
105.4327	18.0000	0.5774
105.4609	18.2778	0.5818
105.4892	17.6852	0.5723
105.5175	18.4444	0.5844
105.5457	17.5556	0.5702
105.5740	18.8519	0.5909
105.6023	18.6481	0.5877
105.6305	18.9259	0.5920
105.6588	17.6111	0.5711
105.6871	17.9815	0.5771
105.7153	17.7037	0.5726
105.7436	18.7963	0.5900
105.7718	18.0556	0.5782
105.8001	18.9815	0.5929
105.8284	18.5185	0.5856
105.8566	17.9815	0.5771
105.8849	17.8333	0.5747
105.9132	19.0370	0.5937
105.9414	18.1296	0.5794
105.9697	17.4815	0.5690
105.9980	18.2963	0.5821
106.0262	18.1667	0.5800
106.0545	19.0370	0.5937
106.0828	19.1927	0.5934
106.1110	17.9450	0.5738
106.1393	18.8807	0.5886
106.1676	18.7706	0.5869
106.1958	18.3303	0.5799
106.2241	18.3486	0.5802
106.2524	17.8165	0.5718
106.2806	19.1455	0.5900
106.3089	18.8909	0.5861
106.3372	19.0182	0.5880
106.3654	19.0182	0.5880
106.3937	17.7091	0.5674
106.4220	18.8364	0.5852
106.4502	18.0727	0.5732
106.4785	17.5455	0.5648
106.5068	18.9636	0.5872
106.5350	18.8909	0.5861
106.5633	18.5818	0.5812
106.5915	18.1455	0.5744
106.6198	18.9091	0.5863
106.6481	19.6364	0.5975
106.6763	17.8727	0.5701
106.7046	17.9273	0.5709
106.7329	19.7455	0.5992
106.7611	18.7455	0.5838
106.7894	19.2727	0.5920
106.8177	18.4545	0.5793
106.8459	18.0727	0.5732
106.8742	18.4000	0.5784
106.9025	19.1455	0.5900
106.9307	19.8182	0.6003
106.9590	17.7455	0.5680
106.9873	19.1818	0.5906
107.0155	17.2545	0.5601
107.0438	18.6182	0.5818
107.0721	18.3091	0.5770
107.1003	19.0364	0.5883
107.1286	18.3091	0.5770
107.1569	19.3455	0.5931
107.1851	19.0727	0.5889
107.2134	18.7091	0.5832
107.2417	18.9273	0.5866
107.2699	18.2000	0.5752
107.2982	18.5636	0.5810
107.3265	17.0727	0.5571
107.3547	17.7273	0.5677
107.3830	18.8182	0.5849
107.4113	16.6545	0.5503
107.4395	17.0727	0.5571
107.4678	18.6727	0.5827
107.4960	18.1081	0.5712
107.5243	18.2703	0.5738
107.5526	17.8378	0.5669
107.5808	17.5856	0.5629
107.6091	18.5405	0.5780
107.6374	18.6126	0.5791
107.6656	19.0090	0.5852
107.6939	17.8378	0.5669
107.7222	17.6577	0.5641
107.7504	18.4643	0.5742
107.7787	18.5357	0.5753
107.8070	17.7143	0.5624
107.8352	18.5357	0.5753
107.8635	17.5536	0.5599
107.8918	18.8929	0.5808
107.9200	18.0536	0.5678
107.9483	18.5179	0.5750
107.9766	17.5893	0.5604
108.0048	17.4107	0.5576
108.0331	17.7321	0.5627
108.0614	18.3214	0.5720
108.0896	17.5536	0.5599
108.1179	18.2143	0.5703
108.1462	17.8214	0.5641
108.1744	18.2321	0.5706
108.2027	18.0357	0.5675
108.2310	18.5357	0.5753
108.2592	19.1250	0.5844
108.2875	18.8214	0.5797
108.3157	18.0536	0.5678
108.3440	17.4821	0.5587
108.3723	17.3750	0.5570
108.4005	17.8750	0.5650
108.4288	18.8036	0.5795
108.4571	17.9107	0.5655
108.4853	19.0714	0.5836
108.5136	17.5893	0.5604
108.5419	17.5714	0.5602
108.5701	17.2679	0.5553
108.5984	18.2143	0.5703
108.6267	18.4107	0.5734
108.6549	18.1607	0.5695
108.6832	18.6250	0.5767
108.7115	18.0541	0.5703
108.7397	18.5455	0.5807
108.7680	18.1835	0.5776
108.7963	18.9074	0.5917
108.8245	18.7850	0.5926
108.8528	19.2453	0.6026
108.8811	18.6667	0.5963
108.9093	18.9423	0.6036
108.9376	19.2039	0.6106
108.9659	19.6078	0.6201
108.9941	19.0891	0.6148
109.0224	19.3200	0.6216
109.0507	20.0000	0.6356
109.0789	19.2449	0.6267
109.1072	18.4742	0.6172
109.1355	18.9375	0.6281
109.1637	19.8105	0.6458
109.1920	18.5745	0.6287
109.2202	19.2766	0.6404
109.2485	19.6129	0.6494
109.2768	19.5000	0.6511
109.3050	18.1099	0.6309
109.3333	19.2667	0.6543
109.3616	18.8764	0.6513
109.3898	19.9773	0.6738
109.4181	19.1034	0.6627
109.4464	19.6744	0.6764
109.4746	18.5176	0.6601
109.5029	18.1667	0.6577
109.5312	19.4458	0.6845
109.5594	19.1707	0.6838
109.5877	19.4074	0.6922
109.6160	19.8500	0.7045
109.6442	18.3291	0.6812
109.6725	19.5897	0.7087
109.7008	20.1039	0.7226
109.7290	20.2105	0.7293
109.7573	20.4267	0.7380
109.7856	19.6486	0.7287
109.8138	17.9726	0.7017
109.8421	18.4167	0.7152
109.8704	19.2394	0.7362
109.8986	19.7143	0.7505
109.9269	18.8696	0.7396
109.9552	18.8824	0.7452
109.9834	18.5672	0.7445
