1.544427
20.0141	38.6667	2.0728
20.0424	41.6667	2.1517
20.0707	42.2222	2.1660
20.0989	46.7778	2.2798
20.1272	43.7778	2.2055
20.1555	42.5556	2.1745
20.1837	43.0000	2.1858
20.2120	42.7778	2.1802
20.2403	38.7778	2.0757
20.2685	41.7778	2.1545
20.2968	40.0000	2.1082
20.3251	43.5556	2.1999
20.3533	38.1111	2.0578
20.3816	44.7778	2.2305
20.4099	41.5556	2.1488
20.4381	42.2222	2.1660
20.4664	39.1111	2.0846
20.4946	42.8889	2.1830
20.5229	41.2222	2.1402
20.5512	39.5556	2.0964
20.5794	44.8889	2.2333
20.6077	40.0000	2.1082
20.6360	41.4444	2.1459
20.6642	44.7778	2.2305
20.6925	39.7778	2.1023
20.7208	35.5556	1.9876
20.7490	40.1053	2.0547
20.7773	38.7368	2.0193
20.8056	36.7368	1.9665
20.8338	42.5263	2.1158
20.8621	39.4737	2.0384
20.8904	36.6316	1.9637
20.9186	37.3684	1.9833
20.9469	36.3158	1.9552
20.9752	38.7368	2.0193
21.0034	40.9474	2.0761
21.0317	40.5263	2.0654
21.0600	38.1053	2.0028
21.0882	43.6842	2.1444
21.1165	40.7368	2.0708
21.1448	39.8947	2.0493
21.1730	41.3684	2.0868
21.2013	37.8947	1.9972
21.2296	40.0000	2.0520
21.2578	39.1579	2.0302
21.2861	42.8000	2.0688
21.3143	38.5000	1.9621
21.3426	37.4000	1.9339
21.3709	40.5000	2.0125
21.3991	41.0000	2.0248
21.4274	37.4000	1.9339
21.4557	38.8000	1.9698
21.4839	35.2000	1.8762
21.5122	35.1000	1.8735
21.5405	34.7000	1.8628
21.5687	36.7000	1.9157
21.5970	36.2000	1.9026
21.6253	38.1000	1.9519
21.6535	37.6000	1.9391
21.6818	36.6000	1.9131
21.7101	37.0000	1.9235
21.7383	35.9000	1.8947
21.7666	36.3000	1.9053
21.7949	33.0000	1.8166
21.8231	37.3000	1.9313
21.8514	34.7000	1.8628
21.8797	34.7000	1.8628
21.9079	33.7000	1.8358
21.9362	39.0000	1.9748
21.9645	37.9000	1.9468
21.9927	37.3000	1.9313
22.0210	33.9000	1.8412
22.0493	37.2000	1.9287
22.0775	34.1000	1.8466
22.1058	38.6000	1.9647
22.1340	34.6000	1.8601
22.1623	31.4000	1.7720
22.1906	34.8000	1.8655
22.2188	32.7000	1.8083
22.2471	34.2000	1.8493
22.2754	35.4000	1.8815
22.3036	32.8000	1.8111
22.3319	35.3000	1.8788
22.3602	33.3000	1.8248
22.3884	33.2000	1.8221
22.4167	34.8000	1.8655
22.4450	33.8000	1.8385
22.4732	34.7000	1.8628
22.5015	34.7000	1.8628
22.5298	34.1000	1.8466
22.5580	32.8000	1.8111
22.5863	33.1000	1.8193
22.6146	32.7000	1.8083
22.6428	33.8000	1.8385
22.6711	35.2000	1.8762
22.6994	33.9000	1.8412
22.7276	35.2000	1.8762
22.7559	34.1000	1.8466
22.7842	33.9000	1.8412
22.8124	33.9000	1.8412
22.8407	36.4000	1.9079
22.8690	30.3000	1.7407
22.8972	32.1000	1.7916
22.9255	29.9000	1.7292
22.9538	35.2000	1.8762
22.9820	32.6000	1.8055
23.0103	32.6000	1.8055
23.0385	31.2000	1.7664
23.0668	34.4000	1.8547
23.0951	31.0000	1.7607
23.1233	32.9000	1.8138
23.1516	33.7000	1.8358
23.1799	31.7000	1.7804
23.2081	31.9000	1.7861
23.2364	35.5000	1.8841
23.2647	30.3000	1.7407
23.2929	31.7000	1.7804
23.3212	33.7000	1.8358
23.3495	30.6000	1.7493
23.3777	30.3000	1.7407
23.4060	32.1000	1.7916
23.4343	30.7000	1.7521
23.4625	29.7000	1.7234
23.4908	32.6000	1.8055
23.5191	31.3000	1.7692
23.5473	33.2000	1.8221
23.5756	33.6000	1.8330
23.6039	30.6000	1.7493
23.6321	28.9000	1.7000
23.6604	29.0000	1.7029
23.6887	31.6000	1.7776
23.7169	32.5000	1.8028
23.7452	29.8000	1.7263
23.7735	32.7000	1.8083
23.8017	31.8000	1.7833
23.8300	33.0000	1.8166
23.8582	30.5000	1.7464
23.8865	32.6000	1.8055
23.9148	29.5000	1.7176
23.9430	28.4000	1.6852
23.9713	28.1000	1.6763
23.9996	27.8000	1.6673
24.0278	28.3000	1.6823
24.0561	30.5000	1.7464
24.0844	32.6000	1.8055
24.1126	28.7000	1.6941
24.1409	31.3000	1.7692
24.1692	26.2000	1.6186
24.1974	28.7000	1.6941
24.2257	30.7000	1.7521
24.2540	31.6000	1.7776
24.2822	26.9000	1.6401
24.3105	29.9000	1.7292
24.3388	31.3000	1.7692
24.3670	30.8000	1.7550
24.3953	30.6000	1.7493
24.4236	29.5000	1.7176
24.4518	32.6000	1.8055
24.4801	27.5000	1.6583
24.5084	28.3000	1.6823
24.5366	27.3000	1.6523
24.5649	31.4000	1.7720
24.5932	29.4000	1.7146
24.6214	30.0000	1.7321
24.6497	30.0000	1.7321
24.6780	29.0000	1.7029
24.7062	28.0000	1.6733
24.7345	32.4000	1.8000
24.7627	30.2000	1.7378
24.7910	30.2000	1.7378
24.8193	27.6000	1.6613
24.8475	25.4000	1.5937
24.8758	29.1000	1.7059
24.9041	31.0000	1.7607
24.9323	31.9000	1.7861
24.9606	25.6000	1.6000
24.9889	28.3000	1.6823
25.0171	29.3000	1.7117
25.0454	31.1000	1.7635
25.0737	28.4000	1.6852
25.1019	26.8000	1.6371
25.1302	30.4762	1.7037
25.1585	28.6667	1.6523
25.1867	29.9048	1.6876
25.2150	31.3333	1.7275
25.2433	28.4762	1.6468
25.2715	26.2857	1.5822
25.2998	29.3333	1.6714
25.3281	27.0476	1.6050
25.3563	30.6667	1.7090
25.3846	27.5238	1.6190
25.4129	27.5238	1.6190
25.4411	29.9048	1.6876
25.4694	26.9524	1.6022
25.4977	28.1905	1.6385
25.5259	24.8571	1.5386
25.5542	27.9048	1.6302
25.5824	26.4762	1.5879
25.6107	31.4286	1.7301
25.6390	29.7143	1.6822
25.6672	29.5238	1.6768
25.6955	26.5714	1.5908
25.7238	27.3636	1.5772
25.7520	26.1818	1.5428
25.7803	24.0909	1.4799
25.8086	24.4545	1.4910
25.8368	26.4545	1.5508
25.8651	26.2727	1.5455
25.8934	28.9091	1.6211
25.9216	28.4545	1.6083
25.9499	27.3636	1.5772
25.9782	26.8182	1.5614
26.0064	24.9091	1.5048
26.0347	26.4545	1.5508
26.0630	28.5455	1.6109
26.0912	24.2727	1.4855
26.1195	27.8182	1.5903
26.1478	28.6364	1.6135
26.1760	26.0000	1.5374
26.2043	26.7273	1.5588
26.2326	24.8182	1.5021
26.2608	29.0909	1.6262
26.2891	25.5455	1.5239
26.3174	26.2727	1.5455
26.3456	26.0909	1.5401
26.3739	23.7273	1.4687
26.4021	26.0909	1.5401
26.4304	26.5455	1.5535
26.4587	24.9091	1.5048
26.4869	24.1818	1.4827
26.5152	22.3636	1.4259
26.5435	25.2727	1.5158
26.5717	27.1818	1.5720
26.6000	24.6364	1.4966
26.6283	24.5455	1.4938
26.6565	23.6364	1.4659
26.6848	25.0909	1.5103
26.7131	25.8182	1.5320
26.7413	25.2727	1.5158
26.7696	25.3636	1.5185
26.7979	26.2727	1.5455
26.8261	26.4545	1.5508
26.8544	26.4545	1.5508
26.8827	26.4545	1.5508
26.9109	25.3636	1.5185
26.9392	25.3636	1.5185
26.9675	26.8182	1.5614
26.9957	21.0000	1.3817
27.0240	25.9091	1.5347
27.0523	24.5455	1.4938
27.0805	24.1818	1.4827
27.1088	22.8182	1.4403
27.1371	24.2727	1.4855
27.1653	25.6364	1.5266
27.1936	25.5455	1.5239
27.2219	23.2727	1.4545
27.2501	27.1818	1.5720
27.2784	22.7273	1.4374
27.3066	25.5455	1.5239
27.3349	24.0909	1.4799
27.3632	25.0909	1.5103
27.3914	24.6364	1.4966
27.4197	21.3636	1.3936
27.4480	22.2727	1.4230
27.4762	23.7273	1.4687
27.5045	23.3636	1.4574
27.5328	24.9091	1.5048
27.5610	22.1818	1.4200
27.5893	23.0000	1.4460
27.6176	25.4545	1.5212
27.6458	22.0909	1.4171
27.6741	25.6364	1.5266
27.7024	24.0909	1.4799
27.7306	21.9091	1.4113
27.7589	23.0909	1.4489
27.7872	24.3636	1.4882
27.8154	22.0909	1.4171
27.8437	22.7273	1.4374
27.8720	22.4545	1.4287
27.9002	25.0909	1.5103
27.9285	22.6364	1.4345
27.9568	22.6364	1.4345
27.9850	26.0000	1.5374
28.0133	22.4545	1.4287
28.0416	20.6364	1.3697
28.0698	22.6364	1.4345
28.0981	22.3636	1.4259
28.1263	22.9091	1.4431
28.1546	23.0909	1.4489
28.1829	25.0909	1.5103
28.2111	24.0000	1.4771
28.2394	23.2727	1.4545
28.2677	22.2727	1.4230
28.2959	22.7273	1.4374
28.3242	23.1818	1.4517
28.3525	25.3636	1.5185
28.3807	20.0000	1.3484
28.4090	22.5455	1.4316
28.4373	23.5455	1.4630
28.4655	23.1818	1.4517
28.4938	22.8182	1.4403
28.5221	21.4545	1.3966
28.5503	24.6364	1.4966
28.5786	21.0909	1.3847
28.6069	22.4545	1.4287
28.6351	20.7273	1.3727
28.6634	22.1818	1.4200
28.6917	22.1818	1.4200
28.7199	22.3636	1.4259
28.7482	23.9091	1.4743
28.7765	23.5455	1.4630
28.8047	23.4545	1.4602
28.8330	24.2727	1.4855
28.8613	22.7273	1.4374
28.8895	20.9091	1.3787
28.9178	22.0909	1.4171
28.9461	21.1818	1.3877
28.9743	23.4545	1.4602
29.0026	21.0000	1.3817
29.0308	21.1818	1.3877
29.0591	21.8182	1.4084
29.0874	24.2727	1.4855
29.1156	21.5455	1.3995
29.1439	20.3636	1.3606
29.1722	21.4545	1.3966
29.2004	21.5455	1.3995
29.2287	21.2727	1.3906
29.2570	22.9091	1.4431
29.2852	22.0000	1.4142
29.3135	21.0909	1.3847
29.3418	25.3636	1.5185
29.3700	22.6364	1.4345
29.3983	23.1818	1.4517
29.4266	20.2727	1.3576
29.4548	17.5455	1.2629
29.4831	21.1304	1.3555
29.5114	21.1304	1.3555
29.5396	21.3913	1.3639
29.5679	20.6087	1.3387
29.5962	19.8261	1.3130
29.6244	21.5652	1.3694
29.6527	19.3043	1.2956
29.6810	20.0870	1.3216
29.7092	20.6087	1.3387
29.7375	21.6522	1.3722
29.7658	22.4348	1.3967
29.7940	19.4783	1.3014
29.8223	20.6087	1.3387
29.8505	21.6522	1.3722
29.8788	19.9130	1.3159
29.9071	20.3478	1.3302
29.9353	19.6522	1.3072
29.9636	22.3478	1.3940
29.9919	20.8696	1.3471
30.0201	20.9565	1.3499
30.0484	20.7826	1.3443
30.0767	20.2609	1.3273
30.1049	21.8261	1.3777
30.1332	21.5000	1.3385
30.1615	20.4167	1.3044
30.1897	20.9167	1.3202
30.2180	20.5000	1.3070
30.2463	22.0833	1.3566
30.2745	18.1667	1.2304
30.3028	18.0833	1.2276
30.3311	19.3333	1.2693
30.3593	21.0833	1.3255
30.3876	20.5000	1.3070
30.4159	20.0000	1.2910
30.4441	20.1667	1.2964
30.4724	19.3333	1.2693
30.5007	18.5833	1.2444
30.5289	21.1667	1.3281
30.5572	20.0833	1.2937
30.5855	19.7500	1.2829
30.6137	20.9167	1.3202
30.6420	21.3333	1.3333
30.6702	20.2500	1.2990
30.6985	18.5833	1.2444
30.7268	21.0000	1.3229
30.7550	20.3333	1.3017
30.7833	20.8333	1.3176
30.8116	20.6667	1.3123
30.8398	21.9167	1.3514
30.8681	21.3333	1.3333
30.8964	19.9167	1.2883
30.9246	19.0000	1.2583
30.9529	19.4167	1.2720
30.9812	18.1667	1.2304
31.0094	19.7500	1.2829
31.0377	19.6667	1.2802
31.0660	20.1667	1.2964
31.0942	20.4167	1.3044
31.1225	18.7500	1.2500
31.1508	18.5833	1.2444
31.1790	18.1667	1.2304
31.2073	19.3333	1.2693
31.2356	18.8333	1.2528
31.2638	21.5000	1.3385
31.2921	19.0000	1.2583
31.3204	18.1667	1.2304
31.3486	18.5000	1.2416
31.3769	20.5833	1.3097
31.4052	18.1667	1.2304
31.4334	20.8333	1.3176
31.4617	19.0833	1.2611
31.4900	21.0833	1.3255
31.5182	18.5833	1.2444
31.5465	18.5000	1.2416
31.5747	17.4167	1.2047
31.6030	18.9167	1.2555
31.6313	19.2500	1.2666
31.6595	18.1667	1.2304
31.6878	21.0833	1.3255
31.7161	20.0833	1.2937
31.7443	17.2500	1.1990
31.7726	19.1667	1.2638
31.8009	21.4167	1.3359
31.8291	21.1667	1.3281
31.8574	19.5833	1.2775
31.8857	17.5000	1.2076
31.9139	18.3333	1.2360
31.9422	16.2500	1.1637
31.9705	18.8333	1.2528
31.9987	17.2500	1.1990
32.0270	20.0000	1.2910
32.0553	20.0000	1.2910
32.0835	20.0833	1.2937
32.1118	19.5833	1.2775
32.1401	19.9167	1.2883
32.1683	18.6667	1.2472
32.1966	19.4167	1.2720
32.2249	17.2500	1.1990
32.2531	22.2500	1.3617
32.2814	20.5000	1.3070
32.3097	18.4167	1.2388
32.3379	18.6667	1.2472
32.3662	17.5833	1.2105
32.3944	17.5000	1.2076
32.4227	19.9167	1.2883
32.4510	18.9167	1.2555
32.4792	18.5833	1.2444
32.5075	19.5000	1.2748
32.5358	19.1667	1.2638
32.5640	17.3333	1.2019
32.5923	18.2500	1.2332
32.6206	18.2500	1.2332
32.6488	16.0000	1.1547
32.6771	18.3333	1.2360
32.7054	19.6667	1.2802
32.7336	21.0000	1.3229
32.7619	18.9167	1.2555
32.7902	19.5000	1.2748
32.8184	18.8333	1.2528
32.8467	19.0000	1.2583
32.8750	16.9167	1.1873
32.9032	18.0833	1.2276
32.9315	16.8333	1.1844
32.9598	16.4167	1.1696
32.9880	18.5833	1.2444
33.0163	15.4167	1.1335
33.0446	15.0000	1.1180
33.0728	18.2500	1.2332
33.1011	20.2500	1.2990
33.1294	18.5833	1.2444
33.1576	18.1667	1.2304
33.1859	15.2500	1.1273
33.2142	17.6667	1.2134
33.2424	17.3333	1.2019
33.2707	19.0833	1.2611
33.2989	19.0833	1.2611
33.3272	16.8333	1.1844
33.3555	15.3333	1.1304
33.3837	17.3333	1.2019
33.4120	17.0833	1.1932
33.4403	18.4167	1.2388
33.4685	18.5000	1.2416
33.4968	18.7500	1.2500
33.5251	16.3333	1.1667
33.5533	16.7500	1.1815
33.5816	17.0833	1.1932
33.6099	17.8333	1.2191
33.6381	16.4167	1.1696
33.6664	18.1667	1.2304
33.6947	16.2500	1.1637
33.7229	16.5833	1.1756
33.7512	16.0000	1.1547
33.7795	17.9167	1.2219
33.8077	17.4167	1.2047
33.8360	16.7500	1.1815
33.8643	16.4000	1.1454
33.8925	16.2400	1.1398
33.9208	17.4400	1.1812
33.9491	17.2800	1.1758
33.9773	15.9200	1.1285
34.0056	16.2400	1.1398
34.0339	16.6400	1.1538
34.0621	19.6000	1.2522
34.0904	15.6000	1.1171
34.1186	18.8000	1.2264
34.1469	17.6000	1.1866
34.1752	17.0400	1.1676
34.2034	18.3200	1.2106
34.2317	15.9200	1.1285
34.2600	16.4800	1.1482
34.2882	16.5600	1.1510
34.3165	15.6800	1.1200
34.3448	14.5600	1.0793
34.3730	16.6400	1.1538
34.4013	17.5200	1.1839
34.4296	16.6400	1.1538
34.4578	17.8400	1.1947
34.4861	15.5200	1.1143
34.5144	16.5600	1.1510
34.5426	18.4000	1.2133
34.5709	15.6154	1.0960
34.5992	15.0000	1.0742
34.6274	17.8462	1.1717
34.6557	16.0769	1.1121
34.6840	16.8462	1.1384
34.7122	15.3077	1.0851
34.7405	17.0000	1.1435
34.7688	17.0000	1.1435
34.7970	14.0000	1.0377
34.8253	17.2308	1.1513
34.8536	16.6923	1.1331
34.8818	17.0000	1.1435
34.9101	16.6923	1.1331
34.9383	17.5385	1.1615
34.9666	17.6923	1.1666
34.9949	13.3846	1.0147
35.0231	19.7692	1.2332
35.0514	17.6923	1.1666
35.0797	15.2308	1.0824
35.1079	16.0000	1.1094
35.1362	16.9231	1.1410
35.1645	19.2308	1.2163
35.1927	16.7692	1.1358
35.2210	14.6923	1.0631
35.2493	16.0000	1.1094
35.2775	16.6923	1.1331
35.3058	18.0000	1.1767
35.3341	18.0000	1.1767
35.3623	17.6923	1.1666
35.3906	15.8462	1.1041
35.4189	15.7692	1.1014
35.4471	14.8462	1.0686
35.4754	16.2308	1.1174
35.5037	14.6154	1.0603
35.5319	16.6923	1.1331
35.5602	15.9231	1.1067
35.5885	15.0000	1.0742
35.6167	16.4615	1.1253
35.6450	15.0000	1.0742
35.6733	15.2308	1.0824
35.7015	16.8462	1.1384
35.7298	16.6923	1.1331
35.7581	17.1538	1.1487
35.7863	14.3077	1.0491
35.8146	15.2308	1.0824
35.8428	16.3846	1.1227
35.8711	15.4615	1.0906
35.8994	16.3846	1.1227
35.9276	16.5385	1.1279
35.9559	15.7692	1.1014
35.9842	15.4615	1.0906
36.0124	15.0769	1.0769
36.0407	17.9231	1.1742
36.0690	15.4615	1.0906
36.0972	15.3846	1.0879
36.1255	14.1538	1.0434
36.1538	14.6923	1.0631
36.1820	15.4615	1.0906
36.2103	16.3077	1.1200
36.2386	17.2308	1.1513
36.2668	14.0000	1.0377
36.2951	17.6154	1.1641
36.3234	14.6923	1.0631
36.3516	12.3846	0.9760
36.3799	16.4615	1.1253
36.4082	13.0769	1.0030
36.4364	15.9231	1.1067
36.4647	15.3077	1.0851
36.4930	16.8462	1.1384
36.5212	15.0000	1.0742
36.5495	15.1538	1.0797
36.5778	16.0000	1.1094
36.6060	16.5385	1.1279
36.6343	14.2308	1.0463
36.6625	16.4615	1.1253
36.6908	15.5385	1.0933
36.7191	16.8462	1.1384
36.7473	15.6154	1.0960
36.7756	13.6923	1.0263
36.8039	13.8462	1.0320
36.8321	16.9231	1.1410
36.8604	14.3846	1.0519
36.8887	15.2308	1.0824
36.9169	16.2308	1.1174
36.9452	14.4615	1.0547
36.9735	15.3846	1.0879
37.0017	14.0769	1.0406
37.0300	15.7692	1.1014
37.0583	15.6923	1.0987
37.0865	17.6154	1.1641
37.1148	14.7692	1.0659
37.1431	17.0000	1.1435
37.1713	16.4615	1.1253
37.1996	13.3077	1.0118
37.2279	13.7692	1.0292
37.2561	16.9231	1.1410
37.2844	17.1538	1.1487
37.3127	16.6923	1.1331
37.3409	17.3077	1.1538
37.3692	15.0769	1.0769
37.3975	15.9231	1.1067
37.4257	16.6154	1.1305
37.4540	17.0000	1.1435
37.4823	16.8462	1.1384
37.5105	14.5385	1.0575
37.5388	14.1538	1.0434
37.5670	15.5385	1.0933
37.5953	16.0000	1.1094
37.6236	16.0000	1.1094
37.6518	15.5385	1.0933
37.6801	14.5385	1.0575
37.7084	15.7692	1.1014
37.7366	14.8462	1.0686
37.7649	18.3077	1.1867
37.7932	16.0000	1.1094
37.8214	16.1538	1.1147
37.8497	14.6154	1.0603
37.8780	18.3077	1.1867
37.9062	17.8462	1.1717
37.9345	14.2308	1.0463
37.9628	16.8462	1.1384
37.9910	18.0769	1.1792
38.0193	18.0769	1.1792
38.0476	20.4615	1.2546
38.0758	17.8462	1.1717
38.1041	18.7692	1.2016
38.1324	20.0000	1.2403
38.1606	19.3846	1.2211
38.1889	20.3846	1.2522
38.2172	20.1538	1.2451
38.2454	19.7778	1.2104
38.2737	22.5185	1.2915
38.3020	21.7037	1.2679
38.3302	21.6296	1.2658
38.3585	22.0741	1.2787
38.3867	21.3333	1.2571
38.4150	23.5556	1.3209
38.4433	23.7037	1.3251
38.4715	23.4074	1.3168
38.4998	21.7037	1.2679
38.5281	23.2593	1.3126
38.5563	25.9259	1.3858
38.5846	27.5556	1.4287
38.6129	27.2593	1.4210
38.6411	26.7407	1.4074
38.6694	27.7778	1.4344
38.6977	31.5556	1.5289
38.7259	30.8889	1.5126
38.7542	36.1481	1.6363
38.7825	38.9630	1.6989
38.8107	39.1852	1.7037
38.8390	43.6296	1.7977
38.8673	46.5926	1.8578
38.8955	52.6667	1.9752
38.9238	57.4815	2.0635
38.9521	63.7037	2.1723
38.9803	67.4815	2.2358
39.0086	80.7857	2.4022
39.0369	86.6429	2.4877
39.0651	96.8571	2.6303
39.0934	108.5714	2.7848
39.1217	126.1429	3.0017
39.1499	147.0714	3.2412
39.1782	166.0000	3.4434
39.2064	187.3571	3.6582
39.2347	214.9286	3.9182
39.2630	239.4286	4.1355
39.2912	265.7143	4.3566
39.3195	293.0000	4.5748
39.3478	321.9286	4.7953
39.3760	345.3571	4.9667
39.4043	371.7857	5.1533
39.4326	365.5714	5.1100
39.4608	358.9286	5.0634
39.4891	342.2857	4.9446
39.5174	318.5000	4.7697
39.5456	275.7143	4.4378
39.5739	245.2857	4.1857
39.6022	209.7857	3.8710
39.6304	183.0714	3.6161
39.6587	155.5000	3.3327
39.6870	134.9286	3.1045
39.7152	109.5714	2.7976
39.7435	96.5000	2.6254
39.7718	84.5000	2.4568
39.8000	70.5000	2.2440
39.8283	64.1429	2.1405
39.8566	57.0714	2.0190
39.8848	53.6429	1.9575
39.9131	45.4286	1.8014
39.9414	40.0000	1.6903
39.9696	42.9286	1.7511
39.9979	36.2857	1.6099
40.0262	33.7857	1.5535
40.0544	32.8571	1.5320
40.0827	29.0714	1.4410
40.1109	29.1429	1.4428
40.1392	27.5000	1.4015
40.1675	24.5714	1.3248
40.1957	24.7857	1.3306
40.2240	24.2143	1.3151
40.2523	23.2143	1.2877
40.2805	23.2857	1.2897
40.3088	22.2143	1.2597
40.3371	20.7857	1.2185
40.3653	20.7857	1.2185
40.3936	23.2143	1.2877
40.4219	19.9286	1.1931
40.4501	22.0000	1.2536
40.4784	18.1429	1.1384
40.5067	19.7143	1.1867
40.5349	18.5714	1.1518
40.5632	18.5714	1.1518
40.5915	19.8571	1.1910
40.6197	17.2143	1.1089
40.6480	19.0714	1.1672
40.6763	16.7857	1.0950
40.7045	15.7857	1.0619
40.7328	15.5000	1.0522
40.7611	15.8571	1.0643
40.7893	18.7143	1.1562
40.8176	15.7143	1.0595
40.8459	15.8571	1.0643
40.8741	15.5714	1.0546
40.9024	15.6429	1.0570
40.9306	15.7143	1.0595
40.9589	16.1429	1.0738
40.9872	16.7143	1.0926
41.0154	15.7143	1.0595
41.0437	17.1429	1.1066
41.0720	14.3571	1.0127
41.1002	15.0714	1.0376
41.1285	16.5714	1.0880
41.1568	17.2143	1.1089
41.1850	14.8571	1.0302
41.2133	13.0714	0.9663
41.2416	15.6429	1.0570
41.2698	15.2857	1.0449
41.2981	15.5714	1.0546
41.3264	13.7143	0.9897
41.3546	12.6429	0.9503
41.3829	15.7143	1.0595
41.4112	14.4286	1.0152
41.4394	15.5714	1.0546
41.4677	16.4286	1.0833
41.4960	15.4286	1.0498
41.5242	14.3571	1.0127
41.5525	13.4286	0.9794
41.5808	14.4286	1.0152
41.6090	15.2857	1.0449
41.6373	13.9286	0.9974
41.6656	14.4286	1.0152
41.6938	15.0000	1.0351
41.7221	13.9286	0.9974
41.7504	14.9286	1.0326
41.7786	14.4286	1.0152
41.8069	14.5000	1.0177
41.8351	14.2143	1.0076
41.8634	13.3571	0.9768
41.8917	14.4286	1.0152
41.9199	15.8571	1.0643
41.9482	14.1429	1.0051
41.9765	14.5714	1.0202
42.0047	15.1429	1.0400
42.0330	14.2857	1.0102
42.0613	13.2143	0.9715
42.0895	14.7143	1.0252
42.1178	13.5000	0.9820
42.1461	11.4286	0.9035
42.1743	16.0714	1.0714
42.2026	11.7143	0.9147
42.2309	13.2143	0.9715
42.2591	13.6429	0.9872
42.2874	14.5000	1.0177
42.3157	12.0714	0.9286
42.3439	13.0714	0.9663
42.3722	11.0714	0.8893
42.4005	12.4286	0.9422
42.4287	14.0000	1.0000
42.4570	13.0714	0.9663
42.4853	12.7857	0.9556
42.5135	14.2857	1.0102
42.5418	11.8571	0.9203
42.5701	13.7143	0.9897
42.5983	13.7241	0.9729
42.6266	12.6207	0.9329
42.6548	12.8966	0.9431
42.6831	12.6207	0.9329
42.7114	12.8966	0.9431
42.7396	13.1034	0.9506
42.7679	12.0690	0.9123
42.7962	12.9655	0.9456
42.8244	12.0690	0.9123
42.8527	12.4828	0.9278
42.8810	13.6552	0.9704
42.9092	15.0345	1.0183
42.9375	12.2759	0.9201
42.9658	14.2069	0.9898
42.9940	14.4828	0.9994
43.0223	11.7931	0.9018
43.0506	13.1034	0.9506
43.0788	12.9655	0.9456
43.1071	12.4138	0.9253
43.1354	12.4138	0.9253
43.1636	12.0000	0.9097
43.1919	12.0690	0.9123
43.2202	10.6207	0.8558
43.2484	13.7241	0.9729
43.2767	11.2414	0.8805
43.3050	13.0345	0.9481
43.3332	12.3448	0.9227
43.3615	14.6207	1.0042
43.3898	12.4828	0.9278
43.4180	14.0000	0.9661
43.4463	14.2000	0.9730
43.4745	12.9333	0.9286
43.5028	11.8000	0.8869
43.5311	13.7333	0.9568
43.5593	13.6667	0.9545
43.5876	11.8667	0.8894
43.6159	12.6667	0.9189
43.6441	13.0000	0.9309
43.6724	12.5333	0.9141
43.7007	13.2000	0.9381
43.7289	13.5333	0.9499
43.7572	12.5333	0.9141
43.7855	11.8000	0.8869
43.8137	12.0000	0.8944
43.8420	12.7333	0.9214
43.8703	12.9333	0.9286
43.8985	13.2000	0.9381
43.9268	12.6000	0.9165
43.9551	11.6667	0.8819
43.9833	11.5333	0.8769
44.0116	12.1333	0.8994
44.0399	11.7333	0.8844
44.0681	13.1333	0.9357
44.0964	12.7333	0.9214
44.1247	12.4000	0.9092
44.1529	11.0667	0.8589
44.1812	11.6667	0.8819
44.2095	12.1333	0.8994
44.2377	11.5333	0.8769
44.2660	13.7333	0.9568
44.2943	12.4000	0.9092
44.3225	13.4667	0.9475
44.3508	11.6000	0.8794
44.3790	12.0667	0.8969
44.4073	12.3333	0.9068
44.4356	12.8667	0.9262
44.4638	11.2000	0.8641
44.4921	12.6667	0.9189
44.5204	11.2667	0.8667
44.5486	12.0000	0.8944
44.5769	13.2000	0.9381
44.6052	11.2667	0.8667
44.6334	12.7333	0.9214
44.6617	11.8000	0.8869
44.6900	12.4000	0.9092
44.7182	12.3333	0.9068
44.7465	12.5333	0.9141
44.7748	12.8000	0.9238
44.8030	11.8667	0.8894
44.8313	12.5333	0.9141
44.8596	12.2000	0.9018
44.8878	10.5333	0.8380
44.9161	11.0667	0.8589
44.9444	11.9333	0.8919
44.9726	11.9333	0.8919
45.0009	11.6000	0.8794
45.0292	13.0667	0.9333
45.0574	11.2000	0.8641
45.0857	10.6000	0.8406
45.1140	12.0000	0.8944
45.1422	10.0667	0.8192
45.1705	10.6667	0.8433
45.1987	11.9333	0.8919
45.2270	12.0000	0.8944
45.2553	11.9333	0.8919
45.2835	12.3333	0.9068
45.3118	12.4000	0.9092
45.3401	11.3333	0.8692
45.3683	10.2667	0.8273
45.3966	12.6667	0.9189
45.4249	11.8667	0.8894
45.4531	10.2667	0.8273
45.4814	11.5333	0.8769
45.5097	12.2667	0.9043
45.5379	12.8667	0.9262
45.5662	12.5333	0.9141
45.5945	10.9333	0.8537
45.6227	11.1333	0.8615
45.6510	10.5333	0.8380
45.6793	11.5333	0.8769
45.7075	11.3333	0.8692
45.7358	12.8667	0.9262
45.7641	11.6667	0.8819
45.7923	11.2000	0.8641
45.8206	11.0000	0.8563
45.8489	12.1333	0.8994
45.8771	10.2000	0.8246
45.9054	12.4000	0.9092
45.9337	12.0667	0.8969
45.9619	11.1333	0.8615
45.9902	11.0667	0.8589
46.0184	10.7333	0.8459
46.0467	12.1333	0.8994
46.0750	12.7333	0.9214
46.1032	13.2667	0.9404
46.1315	11.2000	0.8641
46.1598	10.4667	0.8353
46.1880	10.6000	0.8406
46.2163	10.5333	0.8380
46.2446	11.5333	0.8769
46.2728	11.0000	0.8563
46.3011	11.3333	0.8692
46.3294	10.9333	0.8537
46.3576	12.1333	0.8994
46.3859	11.2667	0.8667
46.4142	12.7333	0.9214
46.4424	12.0000	0.8944
46.4707	11.8667	0.8894
46.4990	11.7333	0.8844
46.5272	12.0000	0.8944
46.5555	11.8000	0.8869
46.5838	10.6452	0.8287
46.6120	10.7742	0.8337
46.6403	12.2581	0.8893
46.6686	11.6774	0.8680
46.6968	11.8065	0.8728
46.7251	10.3226	0.8161
46.7534	11.1613	0.8486
46.7816	10.9032	0.8387
46.8099	9.6774	0.7902
46.8382	11.0968	0.8461
46.8664	11.4839	0.8608
46.8947	10.6452	0.8287
46.9229	9.2258	0.7715
46.9512	10.6452	0.8287
46.9795	12.9677	0.9147
47.0077	10.5161	0.8237
47.0360	11.4839	0.8608
47.0643	10.3871	0.8186
47.0925	11.8710	0.8751
47.1208	10.4516	0.8212
47.1491	9.8065	0.7954
47.1773	11.9355	0.8775
47.2056	10.6452	0.8287
47.2339	10.0000	0.8032
47.2621	11.0323	0.8437
47.2904	9.4194	0.7796
47.3187	10.0000	0.8032
47.3469	10.8387	0.8362
47.3752	10.7742	0.8337
47.4035	10.3871	0.8186
47.4317	10.7097	0.8312
47.4600	12.4375	0.8817
47.4883	9.9375	0.7881
47.5165	10.1875	0.7979
47.5448	9.9375	0.7881
47.5731	9.6875	0.7781
47.6013	10.5625	0.8125
47.6296	9.6875	0.7781
47.6579	10.0000	0.7906
47.6861	11.4375	0.8455
47.7144	10.9375	0.8268
47.7426	9.5625	0.7731
47.7709	10.8750	0.8244
47.7992	9.6875	0.7781
47.8274	12.0625	0.8683
47.8557	10.8750	0.8244
47.8840	10.2500	0.8004
47.9122	9.6875	0.7781
47.9405	9.6250	0.7756
47.9688	10.2500	0.8004
47.9970	10.3125	0.8028
48.0253	10.9375	0.8268
48.0536	9.5000	0.7706
48.0818	11.3125	0.8409
48.1101	10.0625	0.7930
48.1384	10.9375	0.8268
48.1666	9.2500	0.7603
48.1949	10.0625	0.7930
48.2232	10.8750	0.8244
48.2514	9.8750	0.7856
48.2797	12.5000	0.8839
48.3080	10.4375	0.8077
48.3362	9.5000	0.7706
48.3645	12.3750	0.8795
48.3928	10.2500	0.8004
48.4210	11.1875	0.8362
48.4493	9.5000	0.7706
48.4776	10.5000	0.8101
48.5058	10.2500	0.8004
48.5341	10.3750	0.8053
48.5624	10.1250	0.7955
48.5906	10.3750	0.8053
48.6189	9.3125	0.7629
48.6471	11.1250	0.8339
48.6754	9.3125	0.7629
48.7037	10.2500	0.8004
48.7319	11.0625	0.8315
48.7602	8.6875	0.7369
48.7885	9.6250	0.7756
48.8167	9.5000	0.7706
48.8450	10.4375	0.8077
48.8733	10.3750	0.8053
48.9015	10.1875	0.7979
48.9298	11.1250	0.8339
48.9581	10.4375	0.8077
48.9863	9.9375	0.7881
49.0146	11.2500	0.8385
49.0429	10.2500	0.8004
49.0711	9.6875	0.7781
49.0994	9.6250	0.7756
49.1277	11.6250	0.8524
49.1559	10.8125	0.8221
49.1842	10.5625	0.8125
49.2125	9.1875	0.7578
49.2407	10.9375	0.8268
49.2690	10.0625	0.7930
49.2973	10.8750	0.8244
49.3255	10.3125	0.8028
49.3538	11.3125	0.8409
49.3821	10.4375	0.8077
49.4103	9.9375	0.7881
49.4386	11.2500	0.8385
49.4668	10.7500	0.8197
49.4951	11.2500	0.8385
49.5234	11.7500	0.8570
49.5516	11.4375	0.8455
49.5799	10.7500	0.8197
49.6082	11.2500	0.8385
49.6364	10.3750	0.8053
49.6647	11.3125	0.8409
49.6930	11.9375	0.8638
49.7212	9.5625	0.7731
49.7495	10.1875	0.7979
49.7778	10.0000	0.7906
49.8060	11.0000	0.8292
49.8343	10.4375	0.8077
49.8626	10.2500	0.8004
49.8908	10.1875	0.7979
49.9191	9.0625	0.7526
49.9474	10.2500	0.8004
49.9756	9.0000	0.7500
50.0039	10.0000	0.7906
50.0322	10.9375	0.8268
50.0604	9.5625	0.7731
50.0887	10.1875	0.7979
50.1170	8.1875	0.7153
50.1452	8.5000	0.7289
50.1735	10.0000	0.7906
50.2018	10.1250	0.7955
50.2300	10.8125	0.8221
50.2583	10.5000	0.8101
50.2865	9.1875	0.7578
50.3148	10.7500	0.8197
50.3431	8.6875	0.7369
50.3713	8.6250	0.7342
50.3996	10.0625	0.7930
50.4279	9.5625	0.7731
50.4561	10.5000	0.8101
50.4844	10.0000	0.7906
50.5127	9.1875	0.7578
50.5409	8.8485	0.7323
50.5692	9.6364	0.7642
50.5975	9.3939	0.7545
50.6257	10.0606	0.7809
50.6540	8.6061	0.7222
50.6823	11.4545	0.8332
50.7105	8.5455	0.7197
50.7388	11.6364	0.8398
50.7671	8.6061	0.7222
50.7953	9.3939	0.7545
50.8236	10.0606	0.7809
50.8519	11.3939	0.8310
50.8801	8.7273	0.7273
50.9084	8.7273	0.7273
50.9367	8.6061	0.7222
50.9649	10.2424	0.7879
50.9932	11.4545	0.8332
51.0215	9.3939	0.7545
51.0497	8.4242	0.7145
51.0780	9.5758	0.7618
51.1063	10.4242	0.7948
51.1345	8.7273	0.7273
51.1628	10.4242	0.7948
51.1910	9.6970	0.7666
51.2193	10.5455	0.7994
51.2476	9.3939	0.7545
51.2758	9.9394	0.7761
51.3041	9.8788	0.7738
51.3324	9.3939	0.7545
51.3606	10.6667	0.8040
51.3889	10.3636	0.7925
51.4172	10.7879	0.8086
51.4454	9.8788	0.7738
51.4737	9.0000	0.7276
51.5020	9.7647	0.7579
51.5302	9.8824	0.7624
51.5585	10.0588	0.7692
51.5868	10.7059	0.7936
51.6150	10.3529	0.7804
51.6433	9.2941	0.7394
51.6716	9.7647	0.7579
51.6998	9.9412	0.7647
51.7281	10.3529	0.7804
51.7564	11.1176	0.8087
51.7846	10.7059	0.7936
51.8129	10.5882	0.7892
51.8412	11.0588	0.8065
51.8694	9.1765	0.7347
51.8977	10.7059	0.7936
51.9260	11.0588	0.8065
51.9542	10.7059	0.7936
51.9825	10.3529	0.7804
52.0107	9.5294	0.7487
52.0390	9.0000	0.7276
52.0673	9.1765	0.7347
52.0955	9.2353	0.7371
52.1238	11.1176	0.8087
52.1521	10.2353	0.7759
52.1803	10.0588	0.7692
52.2086	11.0000	0.8044
52.2369	10.1176	0.7715
52.2651	11.0000	0.8044
52.2934	10.8824	0.8001
52.3217	9.8235	0.7602
52.3499	10.5294	0.7870
52.3782	9.1765	0.7347
52.4065	10.0588	0.7692
52.4347	11.0588	0.8065
52.4630	8.7647	0.7180
52.4913	10.9412	0.8022
52.5195	10.2941	0.7782
52.5478	9.0000	0.7276
52.5761	8.4118	0.7034
52.6043	9.8824	0.7624
52.6326	9.9412	0.7647
52.6609	10.0588	0.7692
52.6891	9.7059	0.7556
52.7174	10.6471	0.7914
52.7457	10.0000	0.7670
52.7739	10.1176	0.7715
52.8022	9.1765	0.7347
52.8305	8.9412	0.7252
52.8587	10.8824	0.8001
52.8870	10.0000	0.7670
52.9152	10.0588	0.7692
52.9435	9.7059	0.7556
52.9718	11.6471	0.8277
53.0000	8.5882	0.7108
53.0283	11.0000	0.8044
53.0566	10.7647	0.7957
53.0848	10.0588	0.7692
53.1131	8.1176	0.6910
53.1414	10.5294	0.7870
53.1696	9.2353	0.7371
53.1979	10.0000	0.7670
53.2262	10.0000	0.7670
53.2544	10.2941	0.7782
53.2827	10.0588	0.7692
53.3110	10.0000	0.7670
53.3392	9.8824	0.7624
53.3675	9.2353	0.7371
53.3958	9.5294	0.7487
53.4240	9.2353	0.7371
53.4523	12.1765	0.8463
53.4806	10.0000	0.7670
53.5088	8.7647	0.7180
53.5371	10.2353	0.7759
53.5654	9.6471	0.7533
53.5936	8.7059	0.7156
53.6219	10.2941	0.7782
53.6502	10.0588	0.7692
53.6784	10.2353	0.7759
53.7067	9.0588	0.7300
53.7349	11.3529	0.8172
53.7632	10.2353	0.7759
53.7915	9.6471	0.7533
53.8197	9.4706	0.7464
53.8480	9.8824	0.7624
53.8763	10.3529	0.7804
53.9045	8.2353	0.6960
53.9328	9.4706	0.7464
53.9611	10.4118	0.7826
53.9893	9.4118	0.7441
54.0176	8.6471	0.7132
54.0459	10.1176	0.7715
54.0741	9.9412	0.7647
54.1024	9.4118	0.7441
54.1307	9.1765	0.7347
54.1589	9.1765	0.7347
54.1872	8.2353	0.6960
54.2155	9.8824	0.7624
54.2437	10.2941	0.7782
54.2720	9.6471	0.7533
54.3003	9.4118	0.7441
54.3285	8.9412	0.7252
54.3568	10.1176	0.7715
54.3851	10.1765	0.7737
54.4133	8.4706	0.7059
54.4416	10.5882	0.7892
54.4699	10.5294	0.7870
54.4981	9.1765	0.7347
54.5264	10.2857	0.7667
54.5546	10.4571	0.7730
54.5829	9.4286	0.7340
54.6112	10.3429	0.7688
54.6394	8.8571	0.7114
54.6677	10.0571	0.7581
54.6960	10.6857	0.7814
54.7242	10.0000	0.7559
54.7525	10.4571	0.7730
54.7808	9.8857	0.7516
54.8090	10.1714	0.7624
54.8373	10.9143	0.7897
54.8656	9.2571	0.7273
54.8938	9.2000	0.7251
54.9221	9.8857	0.7516
54.9504	10.0000	0.7559
54.9786	12.0000	0.8281
55.0069	8.8571	0.7114
55.0352	8.9143	0.7137
55.0634	11.1429	0.7980
55.0917	11.0286	0.7939
55.1200	10.5714	0.7772
55.1482	10.8571	0.7877
55.1765	9.4286	0.7340
55.2048	9.7143	0.7451
55.2330	10.5143	0.7751
55.2613	9.4286	0.7340
55.2896	10.4571	0.7730
55.3178	8.5143	0.6975
55.3461	10.6286	0.7793
55.3744	11.1429	0.7980
55.4026	10.2286	0.7645
55.4309	10.2286	0.7645
55.4591	11.8857	0.8241
55.4874	10.5143	0.7751
55.5157	9.3333	0.7201
55.5439	10.0556	0.7474
55.5722	12.3333	0.8278
55.6005	11.6667	0.8051
55.6287	10.9444	0.7798
55.6570	11.6111	0.8032
55.6853	11.2222	0.7896
55.7135	11.2222	0.7896
55.7418	10.2778	0.7556
55.7701	10.4444	0.7617
55.7983	11.7222	0.8070
55.8266	11.1667	0.7876
55.8549	12.7222	0.8407
55.8831	10.2778	0.7556
55.9114	10.6667	0.7698
55.9397	11.8333	0.8108
55.9679	13.3889	0.8625
55.9962	13.2778	0.8589
56.0245	11.8333	0.8108
56.0527	14.6111	0.9010
56.0810	13.7222	0.8731
56.1093	12.9444	0.8480
56.1375	13.6111	0.8696
56.1658	15.7778	0.9362
56.1941	16.3889	0.9542
56.2223	15.6667	0.9329
56.2506	16.2222	0.9493
56.2788	16.1111	0.9461
56.3071	17.2222	0.9782
56.3354	17.6111	0.9891
56.3636	17.7222	0.9923
56.3919	19.8333	1.0497
56.4202	21.6667	1.0971
56.4484	22.7778	1.1249
56.4767	25.5000	1.1902
56.5050	26.2778	1.2083
56.5332	27.2778	1.2310
56.5615	31.0000	1.3123
56.5898	31.1111	1.3147
56.6180	32.8889	1.3517
56.6463	37.5000	1.4434
56.6746	40.3333	1.4969
56.7028	42.5000	1.5366
56.7311	45.8889	1.5967
56.7594	50.1667	1.6694
56.7876	51.8889	1.6979
56.8159	56.2778	1.7682
56.8442	55.3889	1.7542
56.8724	56.9444	1.7786
56.9007	58.5000	1.8028
56.9290	60.1111	1.8274
56.9572	65.6667	1.9100
56.9855	61.0000	1.8409
57.0138	63.6667	1.8807
57.0420	66.3889	1.9205
57.0703	65.2222	1.9035
57.0986	64.0556	1.8864
57.1268	58.0000	1.7951
57.1551	55.1111	1.7498
57.1833	50.1667	1.6694
57.2116	44.7778	1.5772
57.2399	43.7778	1.5595
57.2681	39.6667	1.4845
57.2964	36.3333	1.4207
57.3247	32.3889	1.3414
57.3529	28.3333	1.2546
57.3812	22.8333	1.1263
57.4095	24.5000	1.1667
57.4377	20.2778	1.0614
57.4660	19.5000	1.0408
57.4943	19.0000	1.0274
57.5225	16.8333	0.9670
57.5508	14.3889	0.8941
57.5791	15.1667	0.9179
57.6073	14.6667	0.9027
57.6356	14.2222	0.8889
57.6639	13.7778	0.8749
57.6921	14.2222	0.8889
57.7204	13.1667	0.8553
57.7487	12.1667	0.8221
57.7769	12.1667	0.8221
57.8052	12.6667	0.8389
57.8335	12.3889	0.8296
57.8617	12.7778	0.8425
57.8900	11.7778	0.8089
57.9183	11.5000	0.7993
57.9465	10.6667	0.7698
57.9748	11.2222	0.7896
58.0030	11.7222	0.8070
58.0313	10.8889	0.7778
58.0596	10.8333	0.7758
58.0878	10.9444	0.7798
58.1161	10.7222	0.7718
58.1444	9.6111	0.7307
58.1726	11.3889	0.7954
58.2009	9.9444	0.7433
58.2292	12.0556	0.8184
58.2574	9.4444	0.7244
58.2857	9.7778	0.7370
58.3140	10.0000	0.7454
58.3422	10.7222	0.7718
58.3705	9.6667	0.7328
58.3988	9.5556	0.7286
58.4270	10.4444	0.7617
58.4553	9.4444	0.7244
58.4836	10.2703	0.7451
58.5118	11.2432	0.7796
58.5401	9.8919	0.7312
58.5684	9.5676	0.7191
58.5966	9.8378	0.7292
58.6249	10.0000	0.7352
58.6532	9.5676	0.7191
58.6814	10.4865	0.7529
58.7097	10.1081	0.7392
58.7380	9.2432	0.7068
58.7662	10.2703	0.7451
58.7945	9.0811	0.7006
58.8227	9.8919	0.7312
58.8510	10.2162	0.7431
58.8793	10.1622	0.7412
58.9075	9.0811	0.7006
58.9358	9.2432	0.7068
58.9641	9.1892	0.7048
58.9923	9.3514	0.7110
59.0206	9.5676	0.7191
59.0489	10.0541	0.7372
59.0771	8.5946	0.6816
59.1054	10.8649	0.7663
59.1337	9.3514	0.7110
59.1619	8.9730	0.6964
59.1902	10.3243	0.7470
59.2185	10.1622	0.7412
59.2467	8.0541	0.6598
59.2750	10.0000	0.7352
59.3033	9.5135	0.7171
59.3315	9.1351	0.7027
59.3598	9.2432	0.7068
59.3881	10.2703	0.7451
59.4163	9.5135	0.7171
59.4446	9.7838	0.7272
59.4729	9.5676	0.7191
59.5011	9.2432	0.7068
59.5294	9.3158	0.7002
59.5577	8.8421	0.6822
59.5859	10.2105	0.7331
59.6142	9.8947	0.7216
59.6425	8.6842	0.6761
59.6707	9.5263	0.7081
59.6990	9.5263	0.7081
59.7272	8.8421	0.6822
59.7555	8.6842	0.6761
59.7838	10.4211	0.7406
59.8120	7.8947	0.6446
59.8403	10.4211	0.7406
59.8686	9.7895	0.7178
59.8968	8.9474	0.6862
59.9251	8.6316	0.6740
59.9534	9.2105	0.6963
59.9816	10.1579	0.7312
60.0099	10.4211	0.7406
60.0382	9.6316	0.7120
60.0664	10.7895	0.7536
60.0947	11.8947	0.7912
60.1230	10.3158	0.7368
60.1512	9.3684	0.7022
60.1795	10.1579	0.7312
60.2078	9.7895	0.7178
60.2360	10.0526	0.7274
60.2643	10.0526	0.7274
60.2926	9.4211	0.7042
60.3208	10.3158	0.7368
60.3491	10.4737	0.7425
60.3774	10.6316	0.7480
60.4056	10.6842	0.7499
60.4339	10.1053	0.7293
60.4622	10.2632	0.7350
60.4904	11.2105	0.7681
60.5187	11.0526	0.7627
60.5469	10.4737	0.7425
60.5752	10.9474	0.7591
60.6035	9.9474	0.7236
60.6317	10.2632	0.7350
60.6600	10.6842	0.7499
60.6883	9.2632	0.6982
60.7165	9.6842	0.7139
60.7448	9.8947	0.7216
60.7731	10.1053	0.7293
60.8013	9.6842	0.7139
60.8296	10.6842	0.7499
60.8579	9.8421	0.7197
60.8861	10.2105	0.7331
60.9144	9.3684	0.7022
60.9427	9.4211	0.7042
60.9709	10.2105	0.7331
60.9992	9.0000	0.6882
61.0275	10.0000	0.7255
61.0557	10.1053	0.7293
61.0840	10.0526	0.7274
61.1123	9.4737	0.7061
61.1405	9.0526	0.6903
61.1688	9.2632	0.6982
61.1971	9.3684	0.7022
61.2253	9.5789	0.7100
61.2536	9.1579	0.6943
61.2819	10.8947	0.7572
61.3101	9.4211	0.7042
61.3384	10.1053	0.7293
61.3667	9.2632	0.6982
61.3949	8.6316	0.6740
61.4232	8.1053	0.6531
61.4514	8.7895	0.6801
61.4797	8.8947	0.6842
61.5080	9.7895	0.7178
61.5362	9.5263	0.7081
61.5645	8.4211	0.6657
61.5928	8.1579	0.6553
61.6210	9.8421	0.7197
61.6493	8.9474	0.6862
61.6776	8.2105	0.6574
61.7058	8.6842	0.6761
61.7341	9.4211	0.7042
61.7624	9.6842	0.7139
61.7906	8.1053	0.6531
61.8189	7.7895	0.6403
61.8472	9.2632	0.6982
61.8754	9.2105	0.6963
61.9037	9.3684	0.7022
61.9320	8.8947	0.6842
61.9602	7.9474	0.6467
61.9885	9.2105	0.6963
62.0168	8.6842	0.6761
62.0450	9.6316	0.7120
62.0733	9.1579	0.6943
62.1016	9.5263	0.7081
62.1298	9.5263	0.7081
62.1581	8.5263	0.6699
62.1864	9.8947	0.7216
62.2146	8.7895	0.6801
62.2429	9.1053	0.6923
62.2711	8.5263	0.6699
62.2994	10.4211	0.7406
62.3277	10.2105	0.7331
62.3559	10.8421	0.7554
62.3842	10.0000	0.7255
62.4125	9.2105	0.6963
62.4407	9.7368	0.7159
62.4690	8.8718	0.6745
62.4973	8.8718	0.6745
62.5255	7.8462	0.6343
62.5538	10.1538	0.7216
62.5821	10.3077	0.7270
62.6103	7.8974	0.6364
62.6386	9.5897	0.7013
62.6669	8.5641	0.6627
62.6951	9.8462	0.7106
62.7234	9.3846	0.6937
62.7517	8.6667	0.6667
62.7799	9.2308	0.6880
62.8082	8.7179	0.6686
62.8365	11.1795	0.7572
62.8647	8.2051	0.6487
62.8930	9.6923	0.7050
62.9213	9.2821	0.6899
62.9495	8.9231	0.6765
62.9778	8.8718	0.6745
63.0061	7.8974	0.6364
63.0343	9.9487	0.7143
63.0626	9.4359	0.6956
63.0908	9.5897	0.7013
63.1191	9.3846	0.6937
63.1474	8.2564	0.6507
63.1756	9.0769	0.6823
63.2039	8.1026	0.6446
63.2322	9.3333	0.6918
63.2604	8.5128	0.6607
63.2887	7.3333	0.6132
63.3170	7.3333	0.6132
63.3452	7.8462	0.6343
63.3735	9.7436	0.7069
63.4018	8.0000	0.6405
63.4300	10.2051	0.7234
63.4583	8.7692	0.6706
63.4866	8.2051	0.6487
63.5148	8.7692	0.6706
63.5431	8.9231	0.6765
63.5714	9.0000	0.6708
63.5996	9.0500	0.6727
63.6279	9.0244	0.6635
63.6562	8.3902	0.6398
63.6844	7.9512	0.6228
63.7127	10.5366	0.7169
63.7410	8.0976	0.6285
63.7692	8.8780	0.6581
63.7975	9.2683	0.6724
63.8258	8.5854	0.6471
63.8540	8.6829	0.6508
63.8823	9.1707	0.6688
63.9106	9.9024	0.6950
63.9388	9.4634	0.6794
63.9671	9.1220	0.6671
63.9953	8.8293	0.6563
64.0236	8.0488	0.6266
64.0519	9.5122	0.6812
64.0801	9.5122	0.6812
64.1084	10.0488	0.7001
64.1367	8.7317	0.6526
64.1649	8.9756	0.6617
64.1932	10.1951	0.7052
64.2215	9.0732	0.6653
64.2497	8.2927	0.6360
64.2780	8.3902	0.6398
64.3063	8.9756	0.6617
64.3345	9.5122	0.6812
64.3628	9.7561	0.6899
64.3911	7.8049	0.6170
64.4193	9.3171	0.6742
64.4476	7.9024	0.6209
64.4759	9.6585	0.6864
64.5041	8.9756	0.6617
64.5324	9.3171	0.6742
64.5607	7.5610	0.6073
64.5889	8.2927	0.6360
64.6172	9.1220	0.6671
64.6455	9.6098	0.6847
64.6737	8.0000	0.6247
64.7020	9.1707	0.6688
64.7303	8.8780	0.6581
64.7585	8.1463	0.6304
64.7868	8.0476	0.6190
64.8150	8.3256	0.6223
64.8433	8.6047	0.6326
64.8716	7.2558	0.5809
64.8998	8.8837	0.6428
64.9281	8.6047	0.6326
64.9564	9.9535	0.6804
64.9846	7.7209	0.5993
65.0129	9.3953	0.6611
65.0412	9.2093	0.6545
65.0694	8.9767	0.6462
65.0977	8.3721	0.6240
65.1260	7.3953	0.5865
65.1542	8.9767	0.6462
65.1825	9.1628	0.6528
65.2108	9.6279	0.6692
65.2390	8.0465	0.6118
65.2673	8.7907	0.6394
65.2956	8.6977	0.6360
65.3238	7.9535	0.6082
65.3521	8.6047	0.6326
65.3804	8.5581	0.6309
65.4086	10.0930	0.6852
65.4369	8.6512	0.6343
65.4652	8.4651	0.6275
65.4934	8.8837	0.6428
65.5217	9.8140	0.6756
65.5500	8.9767	0.6462
65.5782	8.2791	0.6205
65.6065	8.4186	0.6257
65.6348	10.5116	0.6992
65.6630	8.0000	0.6100
65.6913	8.4651	0.6275
65.7195	8.9302	0.6445
65.7478	8.8372	0.6411
65.7761	9.7674	0.6740
65.8043	8.4186	0.6257
65.8326	8.8372	0.6411
65.8609	8.3721	0.6240
65.8891	9.3488	0.6594
65.9174	9.2558	0.6561
65.9457	8.5116	0.6292
65.9739	8.7273	0.6298
66.0022	9.7727	0.6665
66.0305	8.5778	0.6174
66.0587	8.0889	0.5996
66.0870	9.2444	0.6410
66.1153	9.5111	0.6502
66.1435	8.3556	0.6094
66.1718	9.7333	0.6577
66.2001	8.9333	0.6301
66.2283	7.9556	0.5946
66.2566	8.5333	0.6158
66.2849	9.0667	0.6348
66.3131	10.1333	0.6711
66.3414	8.6222	0.6190
66.3697	9.3333	0.6441
66.3979	9.7333	0.6577
66.4262	8.2222	0.6045
66.4545	8.7556	0.6238
66.4827	11.2889	0.7083
66.5110	8.3111	0.6078
66.5392	8.7111	0.6222
66.5675	9.7778	0.6592
66.5958	9.0222	0.6332
66.6240	7.8222	0.5896
66.6523	8.9333	0.6301
66.6806	8.8444	0.6270
66.7088	8.8889	0.6285
66.7371	9.7778	0.6592
66.7654	9.2000	0.6394
66.7936	8.9333	0.6301
66.8219	8.0889	0.5996
66.8502	8.7556	0.6238
66.8784	9.0222	0.6332
66.9067	9.5111	0.6502
66.9350	8.6667	0.6206
66.9632	7.7333	0.5863
66.9915	10.0889	0.6696
67.0198	8.9778	0.6317
67.0480	8.8444	0.6270
67.0763	9.5556	0.6517
67.1046	8.8000	0.6254
67.1328	9.6444	0.6547
67.1611	9.0870	0.6286
67.1894	8.3043	0.6009
67.2176	8.7826	0.6179
67.2459	9.2766	0.6283
67.2742	9.4468	0.6340
67.3024	8.9362	0.6167
67.3307	9.3191	0.6297
67.3589	8.4255	0.5988
67.3872	8.6809	0.6078
67.4155	8.4255	0.5988
67.4437	8.6809	0.6078
67.4720	8.9787	0.6181
67.5003	8.5532	0.6033
67.5285	7.7872	0.5756
67.5568	9.4043	0.6326
67.5851	9.1489	0.6240
67.6133	8.8511	0.6137
67.6416	9.4043	0.6326
67.6699	10.0426	0.6537
67.6981	8.4681	0.6003
67.7264	9.5745	0.6383
67.7547	9.3191	0.6297
67.7829	8.5957	0.6048
67.8112	8.8511	0.6137
67.8395	8.6809	0.6078
67.8677	9.1064	0.6225
67.8960	8.6383	0.6063
67.9243	8.0000	0.5835
67.9525	8.1277	0.5881
67.9808	9.3617	0.6312
68.0091	8.9787	0.6181
68.0373	9.1489	0.6240
68.0656	8.8936	0.6152
68.0939	9.3617	0.6312
68.1221	10.3404	0.6633
68.1504	8.4681	0.6003
68.1787	9.4468	0.6340
68.2069	8.6809	0.6078
68.2352	8.4681	0.6003
68.2634	9.1489	0.6240
68.2917	10.0000	0.6523
68.3200	10.0000	0.6455
68.3482	8.8750	0.6081
68.3765	9.2917	0.6222
68.4048	9.0000	0.6124
68.4330	8.2083	0.5848
68.4613	9.0000	0.6124
68.4896	10.5714	0.6569
68.5178	8.8980	0.6026
68.5461	9.7959	0.6323
68.5744	8.9388	0.6040
68.6026	9.7551	0.6310
68.6309	8.9796	0.6054
68.6592	9.7551	0.6310
68.6874	10.4490	0.6531
68.7157	10.1633	0.6441
68.7440	9.5918	0.6257
68.7722	9.7551	0.6310
68.8005	10.1633	0.6441
68.8288	9.7959	0.6323
68.8570	10.6531	0.6594
68.8853	10.5714	0.6569
68.9136	11.5102	0.6854
68.9418	11.0612	0.6719
68.9701	10.2041	0.6454
68.9984	9.4694	0.6217
69.0266	10.6531	0.6594
69.0549	10.1633	0.6441
69.0831	10.3265	0.6492
69.1114	11.3469	0.6805
69.1397	9.4286	0.6204
69.1679	10.4898	0.6543
69.1962	10.0816	0.6415
69.2245	10.0408	0.6402
69.2527	9.0612	0.6081
69.2810	9.6735	0.6284
69.3093	11.1837	0.6756
69.3375	8.9796	0.6054
69.3658	9.3469	0.6177
69.3941	9.2245	0.6136
69.4223	10.2041	0.6454
69.4506	10.7755	0.6632
69.4789	9.6735	0.6284
69.5071	9.0800	0.6027
69.5354	9.2800	0.6093
69.5637	9.2800	0.6093
69.5919	9.2400	0.6079
69.6202	11.0000	0.6633
69.6485	10.5600	0.6499
69.6767	10.7200	0.6548
69.7050	11.5686	0.6736
69.7333	11.0980	0.6597
69.7615	11.1765	0.6620
69.7898	10.9020	0.6539
69.8181	10.5882	0.6444
69.8463	11.3333	0.6667
69.8746	11.4118	0.6690
69.9028	10.5882	0.6444
69.9311	10.7451	0.6491
69.9594	11.6863	0.6770
69.9876	11.6078	0.6747
70.0159	11.3725	0.6678
70.0442	11.0980	0.6597
70.0724	9.8431	0.6213
70.1007	11.0196	0.6574
70.1290	10.8627	0.6527
70.1572	11.0588	0.6585
70.1855	10.2745	0.6348
70.2138	11.2157	0.6632
70.2420	11.8431	0.6815
70.2703	11.6863	0.6770
70.2986	11.8431	0.6815
70.3268	12.7059	0.7059
70.3551	12.0392	0.6871
70.3834	12.9804	0.7135
70.4116	12.2353	0.6927
70.4399	12.3137	0.6949
70.4682	13.7647	0.7347
70.4964	13.6078	0.7305
70.5247	13.8824	0.7378
70.5530	16.4706	0.8037
70.5812	14.9020	0.7645
70.6095	16.0784	0.7941
70.6378	16.5098	0.8046
70.6660	17.5385	0.8213
70.6943	17.0000	0.8086
70.7226	19.1154	0.8574
70.7508	20.3846	0.8855
70.7791	19.2308	0.8600
70.8073	19.5769	0.8677
70.8356	20.7692	0.8938
70.8639	24.1538	0.9638
70.8921	23.2308	0.9452
70.9204	25.6538	0.9933
70.9487	27.7358	1.0231
70.9769	29.5849	1.0566
71.0052	32.3774	1.1053
71.0335	35.0943	1.1508
71.0617	38.0755	1.1987
71.0900	39.8113	1.2257
71.1183	43.8868	1.2869
71.1465	45.4717	1.3099
71.1748	48.7170	1.3559
71.2031	54.0755	1.4285
71.2313	56.5283	1.4605
71.2596	58.5283	1.4861
71.2879	64.8679	1.5646
71.3161	68.8302	1.6116
71.3444	69.0943	1.6147
71.3727	72.6792	1.6561
71.4009	78.9434	1.7260
71.4292	83.1321	1.7712
71.4575	82.8302	1.7680
71.4857	86.2264	1.8038
71.5140	91.6604	1.8598
71.5423	87.2453	1.8145
71.5705	88.5660	1.8281
71.5988	82.7547	1.7672
71.6270	79.7358	1.7346
71.6553	75.9623	1.6931
71.6836	74.0000	1.6711
71.7118	70.9434	1.6362
71.7401	64.7547	1.5632
71.7684	62.6792	1.5379
71.7966	55.8113	1.4512
71.8249	50.9630	1.3739
71.8532	47.5556	1.3271
71.8814	43.4074	1.2679
71.9097	40.0741	1.2183
71.9380	34.0741	1.1234
71.9662	32.6296	1.0993
71.9945	30.9259	1.0702
72.0228	26.0370	0.9820
72.0510	23.8148	0.9392
72.0793	24.1481	0.9457
72.1076	21.1111	0.8842
72.1358	20.8519	0.8788
72.1641	19.9273	0.8513
72.1924	17.4909	0.7975
72.2206	17.8909	0.8066
72.2489	17.2727	0.7925
72.2772	17.5273	0.7983
72.3054	16.6182	0.7774
72.3337	15.5636	0.7523
72.3620	15.2727	0.7452
72.3902	16.3273	0.7705
72.4185	14.4000	0.7236
72.4468	13.4182	0.6985
72.4750	13.1636	0.6919
72.5033	13.0182	0.6880
72.5315	12.8364	0.6832
72.5598	12.3273	0.6695
72.5881	13.7818	0.7079
72.6163	14.9455	0.7372
72.6446	13.3818	0.6976
72.6729	12.6909	0.6793
72.7011	12.0364	0.6616
72.7294	12.1091	0.6636
72.7577	11.3818	0.6433
72.7859	12.3636	0.6705
72.8142	11.6364	0.6505
72.8425	11.3455	0.6423
72.8707	12.0364	0.6616
72.8990	10.2909	0.6117
72.9273	11.5273	0.6474
72.9555	11.2364	0.6392
72.9838	11.7818	0.6545
73.0121	11.3929	0.6379
73.0403	11.5000	0.6409
73.0686	11.6071	0.6438
73.0969	10.4286	0.6103
73.1251	11.2143	0.6329
73.1534	12.0714	0.6566
73.1817	9.4286	0.5803
73.2099	11.1429	0.6308
73.2382	12.5000	0.6682
73.2665	11.1786	0.6319
73.2947	9.2143	0.5737
73.3230	10.5000	0.6124
73.3512	10.8929	0.6237
73.3795	9.3684	0.5733
73.4078	10.0000	0.5923
73.4360	10.1053	0.5955
73.4643	10.4912	0.6067
73.4926	10.7368	0.6138
73.5208	9.6140	0.5808
73.5491	10.3158	0.6016
73.5774	9.7544	0.5850
73.6056	9.8246	0.5871
73.6339	9.7895	0.5861
73.6622	10.5263	0.6077
73.6904	9.4737	0.5766
73.7187	10.3509	0.6027
73.7470	9.4386	0.5755
73.7752	10.6316	0.6108
73.8035	10.0702	0.5944
73.8318	9.1228	0.5658
73.8600	9.8947	0.5892
73.8883	10.4912	0.6067
73.9166	11.0175	0.6218
73.9448	10.3158	0.6016
73.9731	10.1053	0.5955
74.0014	10.5263	0.6077
74.0296	11.0175	0.6218
74.0579	10.4561	0.6057
74.0862	10.3158	0.6016
74.1144	9.8596	0.5882
74.1427	10.2456	0.5996
74.1709	9.8276	0.5821
74.1992	9.7586	0.5801
74.2275	10.6552	0.6062
74.2557	10.4828	0.6012
74.2840	9.5862	0.5749
74.3123	10.3793	0.5983
74.3405	10.4828	0.6012
74.3688	9.7931	0.5811
74.3971	9.6897	0.5780
74.4253	10.9310	0.6139
74.4536	11.0345	0.6168
74.4819	9.2069	0.5635
74.5101	9.6207	0.5760
74.5384	10.4483	0.6002
74.5667	9.6207	0.5760
74.5949	9.5517	0.5739
74.6232	9.9661	0.5812
74.6515	9.3898	0.5642
74.6797	10.2034	0.5881
74.7080	9.9661	0.5812
74.7363	11.3220	0.6195
74.7645	9.3898	0.5642
74.7928	9.8983	0.5793
74.8211	10.5085	0.5968
74.8493	11.3559	0.6204
74.8776	9.9322	0.5802
74.9059	9.5593	0.5692
74.9341	10.1356	0.5862
74.9624	10.3729	0.5930
74.9907	10.2034	0.5881
75.0189	10.2373	0.5891
75.0472	9.7627	0.5753
75.0754	10.0339	0.5832
75.1037	9.6949	0.5733
75.1320	10.3051	0.5910
75.1602	9.7627	0.5753
75.1885	10.0000	0.5822
75.2168	10.8475	0.6064
75.2450	10.7119	0.6026
75.2733	10.9831	0.6102
75.3016	9.3559	0.5632
75.3298	9.9661	0.5812
75.3581	9.7667	0.5706
75.3864	10.9667	0.6046
75.4146	9.7000	0.5686
75.4429	9.9667	0.5764
75.4712	10.1667	0.5821
75.4994	9.8000	0.5715
75.5277	9.9000	0.5745
75.5560	9.3333	0.5578
75.5842	10.6000	0.5944
75.6125	8.3667	0.5281
75.6408	11.1333	0.6092
75.6690	9.9333	0.5754
75.6973	9.1667	0.5528
75.7256	10.1333	0.5812
75.7538	9.3333	0.5578
75.7821	9.9333	0.5754
75.8104	9.7000	0.5686
75.8386	9.0492	0.5447
75.8669	9.3770	0.5545
75.8951	8.7869	0.5367
75.9234	9.4098	0.5554
75.9517	9.8689	0.5688
75.9799	9.0164	0.5437
76.0082	10.0000	0.5726
76.0365	9.6066	0.5612
76.0647	9.0820	0.5457
76.0930	9.7049	0.5641
76.1213	9.3770	0.5545
76.1495	10.2295	0.5791
76.1778	10.4590	0.5856
76.2061	9.9344	0.5707
76.2343	10.4918	0.5865
76.2626	10.5574	0.5883
76.2909	10.6557	0.5911
76.3191	9.4426	0.5564
76.3474	10.4262	0.5847
76.3757	9.8689	0.5688
76.4039	8.9508	0.5417
76.4322	9.5410	0.5593
76.4605	10.0656	0.5745
76.4887	8.9508	0.5417
76.5170	10.5161	0.5824
76.5453	8.8710	0.5349
76.5735	10.0323	0.5689
76.6018	9.4516	0.5522
76.6301	9.5161	0.5541
76.6583	8.9355	0.5369
76.6866	9.7097	0.5597
76.7149	9.6452	0.5578
76.7431	9.6129	0.5569
76.7714	10.0323	0.5689
76.7996	8.5806	0.5261
76.8279	9.7742	0.5615
76.8562	8.2903	0.5171
76.8844	9.2903	0.5474
76.9127	9.3871	0.5503
76.9410	9.6452	0.5578
76.9692	10.0968	0.5707
76.9975	8.0323	0.5090
77.0258	9.2903	0.5474
77.0540	9.2581	0.5465
77.0823	10.5079	0.5776
77.1106	9.6508	0.5535
77.1388	9.7143	0.5553
77.1671	9.1429	0.5387
77.1954	8.8254	0.5293
77.2236	8.9524	0.5331
77.2519	8.9841	0.5341
77.2802	8.6349	0.5236
77.3084	9.8413	0.5589
77.3367	10.0635	0.5652
77.3650	9.5873	0.5517
77.3932	9.6825	0.5544
77.4215	9.6825	0.5544
77.4498	8.9206	0.5322
77.4780	9.5556	0.5508
77.5063	10.0000	0.5634
77.5346	9.1746	0.5397
77.5628	9.5556	0.5508
77.5911	9.7460	0.5562
77.6193	9.5556	0.5508
77.6476	9.7143	0.5553
77.6759	9.2381	0.5415
77.7041	8.9063	0.5276
77.7324	8.8438	0.5257
77.7607	9.8438	0.5546
77.7889	8.1875	0.5058
77.8172	9.3438	0.5404
77.8455	8.9688	0.5294
77.8737	10.3438	0.5685
77.9020	9.1563	0.5349
77.9303	9.2813	0.5386
77.9585	9.6563	0.5493
77.9868	8.9375	0.5285
78.0151	9.2188	0.5367
78.0433	10.3750	0.5694
78.0716	9.7813	0.5529
78.0999	9.4688	0.5440
78.1281	9.1875	0.5358
78.1564	9.9375	0.5573
78.1847	9.2188	0.5367
78.2129	8.5313	0.5163
78.2412	9.4063	0.5422
78.2695	8.6250	0.5192
78.2977	9.3231	0.5356
78.3260	10.0923	0.5573
78.3543	8.9231	0.5240
78.3825	9.2000	0.5320
78.4108	9.1385	0.5303
78.4390	10.0308	0.5556
78.4673	8.9231	0.5240
78.4956	9.1077	0.5294
78.5238	9.6308	0.5444
78.5521	10.0000	0.5547
78.5804	9.4769	0.5400
78.6086	9.2308	0.5329
78.6369	9.6000	0.5435
78.6652	9.6615	0.5452
78.6934	10.7385	0.5748
78.7217	10.0000	0.5547
78.7500	10.2462	0.5615
78.7782	9.9077	0.5521
78.8065	9.7846	0.5487
78.8348	8.7692	0.5194
78.8630	8.7273	0.5143
78.8913	9.6970	0.5421
78.9196	9.3030	0.5310
78.9478	9.2727	0.5301
78.9761	10.5152	0.5645
79.0044	8.6970	0.5134
79.0326	9.6667	0.5412
79.0609	9.8788	0.5471
79.0892	8.7576	0.5152
79.1174	9.9697	0.5496
79.1457	9.5758	0.5387
79.1740	9.0606	0.5240
79.2022	9.4848	0.5361
79.2305	9.8485	0.5463
79.2588	9.5455	0.5378
79.2870	9.6364	0.5404
79.3153	9.9697	0.5496
79.3435	10.0909	0.5530
79.3718	9.5455	0.5378
79.4001	9.2727	0.5301
79.4283	9.9697	0.5496
79.4566	9.5758	0.5387
79.4849	10.0303	0.5513
79.5131	8.8485	0.5178
79.5414	9.3731	0.5290
79.5697	9.8209	0.5414
79.5979	8.9254	0.5162
79.6262	8.2687	0.4968
79.6545	9.7910	0.5406
79.6827	9.8806	0.5431
79.7110	9.8209	0.5414
79.7393	8.7164	0.5101
79.7675	8.8060	0.5127
79.7958	10.0299	0.5472
79.8241	9.2537	0.5256
79.8523	9.3433	0.5281
79.8806	9.9104	0.5439
79.9089	9.1343	0.5222
79.9371	9.5224	0.5332
79.9654	8.8060	0.5127
79.9937	9.6716	0.5373
80.0219	8.6269	0.5075
80.0502	9.0000	0.5145
80.0785	9.9118	0.5399
80.1067	9.6471	0.5327
80.1350	9.3235	0.5237
80.1632	9.5882	0.5310
80.1915	9.9412	0.5407
80.2198	9.4706	0.5278
80.2480	9.3824	0.5253
80.2763	9.9118	0.5399
80.3046	10.0588	0.5439
80.3328	9.9412	0.5407
80.3611	9.1765	0.5195
80.3894	9.2647	0.5220
80.4176	9.1471	0.5187
80.4459	9.2353	0.5212
80.4742	9.3235	0.5237
80.5024	8.2647	0.4930
80.5307	9.9412	0.5407
80.5590	8.7647	0.5077
80.5872	9.0000	0.5145
80.6155	9.5588	0.5302
80.6438	9.2941	0.5228
80.6720	9.3235	0.5237
80.7003	8.5882	0.5026
80.7286	8.6176	0.5034
80.7568	9.7391	0.5313
80.7851	9.5652	0.5265
80.8134	9.5942	0.5273
80.8416	8.6377	0.5004
80.8699	9.1014	0.5136
80.8982	8.6087	0.4995
80.9264	9.5942	0.5273
80.9547	9.4783	0.5241
80.9830	8.9565	0.5095
81.0112	9.1884	0.5161
81.0395	9.0145	0.5112
81.0677	9.1014	0.5136
81.0960	10.1449	0.5423
81.1243	9.4493	0.5233
81.1525	9.7101	0.5305
81.1808	9.1884	0.5161
81.2091	10.1143	0.5376
81.2373	8.2000	0.4840
81.2656	9.2571	0.5143
81.2939	10.0286	0.5353
81.3221	10.7429	0.5540
81.3504	10.4000	0.5451
81.3787	9.1429	0.5111
81.4069	9.4286	0.5190
81.4352	9.5429	0.5222
81.4635	9.2857	0.5151
81.4917	9.8000	0.5292
81.5200	9.7143	0.5268
81.5483	9.6286	0.5245
81.5765	9.6857	0.5261
81.6048	9.8857	0.5315
81.6331	9.3714	0.5175
81.6613	9.3143	0.5159
81.6896	10.1429	0.5383
81.7179	8.7714	0.5006
81.7461	10.2571	0.5414
81.7744	9.3429	0.5167
81.8027	10.1714	0.5391
81.8309	9.7429	0.5276
81.8592	9.0286	0.5079
81.8874	10.6857	0.5525
81.9157	9.2857	0.5151
81.9440	8.8857	0.5039
81.9722	9.7429	0.5276
82.0005	9.8028	0.5255
82.0288	8.3662	0.4855
82.0570	9.8592	0.5270
82.0853	9.5775	0.5194
82.1136	10.2254	0.5367
82.1418	9.0986	0.5063
82.1701	10.0282	0.5315
82.1984	10.4225	0.5418
82.2266	10.0282	0.5315
82.2549	11.0704	0.5584
82.2832	10.1127	0.5337
82.3114	9.4648	0.5163
82.3397	10.3380	0.5396
82.3680	10.7606	0.5506
82.3962	9.6111	0.5167
82.4245	9.5556	0.5152
82.4528	9.6389	0.5174
82.4810	10.1111	0.5300
82.5093	10.4722	0.5393
82.5376	10.8056	0.5479
82.5658	11.0278	0.5535
82.5941	9.4722	0.5129
82.6224	10.0556	0.5285
82.6506	10.4722	0.5393
82.6789	9.2778	0.5077
82.7071	9.9722	0.5263
82.7354	10.2222	0.5329
82.7637	10.5556	0.5415
82.7919	9.3056	0.5084
82.8202	10.0278	0.5278
82.8485	10.0000	0.5270
82.8767	9.8333	0.5226
82.9050	9.5278	0.5145
82.9333	11.0278	0.5535
82.9615	10.0000	0.5270
82.9898	10.3611	0.5365
83.0181	10.6111	0.5429
83.0463	10.3333	0.5358
83.0746	10.2222	0.5329
83.1029	10.3333	0.5358
83.1311	10.1667	0.5314
83.1594	11.1111	0.5556
83.1877	10.7778	0.5472
83.2159	9.9726	0.5227
83.2442	10.8493	0.5452
83.2725	11.2603	0.5554
83.3007	10.7945	0.5438
83.3290	10.9041	0.5466
83.3573	10.4384	0.5348
83.3855	11.4521	0.5601
83.4138	11.1507	0.5527
83.4421	10.4932	0.5362
83.4703	10.6575	0.5404
83.4986	10.6027	0.5390
83.5269	10.7671	0.5431
83.5551	11.7297	0.5630
83.5834	11.7027	0.5624
83.6116	10.4865	0.5324
83.6399	11.1622	0.5493
83.6682	12.3243	0.5771
83.6964	11.5405	0.5585
83.7247	10.8919	0.5426
83.7530	10.4595	0.5317
83.7812	10.5405	0.5337
83.8095	11.4054	0.5552
83.8378	12.3784	0.5784
83.8660	12.2432	0.5752
83.8943	11.0270	0.5459
83.9226	12.0541	0.5708
83.9508	12.1622	0.5733
83.9791	12.3243	0.5771
84.0074	12.3243	0.5771
84.0356	12.0811	0.5714
84.0639	11.5135	0.5578
84.0922	13.6486	0.6074
84.1204	13.4595	0.6031
84.1487	13.0541	0.5940
84.1770	14.3514	0.6228
84.2052	14.5405	0.6269
84.2335	13.5135	0.6043
84.2618	15.5405	0.6481
84.2900	16.4324	0.6664
84.3183	15.8919	0.6554
84.3466	16.5946	0.6697
84.3748	16.1351	0.6604
84.4031	17.8378	0.6943
84.4313	18.1351	0.7001
84.4596	18.0267	0.6933
84.4879	17.7600	0.6882
84.5161	20.4000	0.7376
84.5444	20.3200	0.7361
84.5727	21.4667	0.7566
84.6009	21.6000	0.7589
84.6292	22.7467	0.7788
84.6575	23.5467	0.7924
84.6857	23.0133	0.7834
84.7140	24.5789	0.8042
84.7423	25.2368	0.8149
84.7705	24.8158	0.8081
84.7988	24.8158	0.8081
84.8271	26.5000	0.8351
84.8553	25.8684	0.8251
84.8836	27.5000	0.8507
84.9119	26.8684	0.8409
84.9401	26.2368	0.8309
84.9684	27.9211	0.8572
84.9967	25.4737	0.8188
85.0249	25.8947	0.8255
85.0532	25.2105	0.8145
85.0815	24.9474	0.8103
85.1097	25.5000	0.8192
85.1380	25.5789	0.8204
85.1663	23.1842	0.7811
85.1945	22.0789	0.7622
85.2228	23.2895	0.7829
85.2511	21.3684	0.7499
85.2793	20.8421	0.7406
85.3076	17.8947	0.6862
85.3358	18.0263	0.6888
85.3641	16.8421	0.6657
85.3924	15.6579	0.6419
85.4206	16.2105	0.6531
85.4489	14.8158	0.6244
85.4772	14.9211	0.6266
85.5054	14.3421	0.6143
85.5337	14.1053	0.6093
85.5620	13.4737	0.5955
85.5902	14.0789	0.6087
85.6185	12.4737	0.5729
85.6468	12.5263	0.5741
85.6750	13.4026	0.5900
85.7033	12.7273	0.5750
85.7316	11.5584	0.5479
85.7598	12.0000	0.5583
85.7881	13.4286	0.5906
85.8164	13.1688	0.5848
85.8446	11.6364	0.5498
85.8729	11.6623	0.5504
85.9012	11.3333	0.5391
85.9294	12.2051	0.5594
85.9577	11.4872	0.5427
85.9860	11.6410	0.5463
86.0142	11.2821	0.5379
86.0425	11.2308	0.5366
86.0708	10.5128	0.5192
86.0990	10.2564	0.5128
86.1273	11.5385	0.5439
86.1555	10.6667	0.5230
86.1838	10.9487	0.5298
86.2121	9.4615	0.4925
86.2403	11.6154	0.5457
86.2686	11.0256	0.5317
86.2969	10.5897	0.5211
86.3251	10.5897	0.5211
86.3534	10.4872	0.5186
86.3817	10.5897	0.5211
86.4099	11.4103	0.5409
86.4382	10.9231	0.5292
86.4665	10.6410	0.5223
86.4947	10.5897	0.5211
86.5230	10.5385	0.5198
86.5513	11.2564	0.5372
86.5795	10.5128	0.5192
86.6078	10.0513	0.5077
86.6361	11.0513	0.5323
86.6643	10.2821	0.5135
86.6926	11.2821	0.5379
86.7209	11.7179	0.5481
86.7491	11.4872	0.5427
86.7774	10.9231	0.5292
86.8057	10.5897	0.5211
86.8339	10.9231	0.5292
86.8622	10.8718	0.5280
86.8905	10.4557	0.5145
86.9187	11.0633	0.5292
86.9470	10.6582	0.5195
86.9752	11.4684	0.5388
87.0035	10.1013	0.5057
87.0318	11.8734	0.5483
87.0600	10.4250	0.5105
87.0883	9.9500	0.4987
87.1166	11.2500	0.5303
87.1448	11.1750	0.5286
87.1731	10.9500	0.5232
87.2014	10.3000	0.5074
87.2296	10.6750	0.5166
87.2579	10.6500	0.5160
87.2862	10.9500	0.5232
87.3144	10.5000	0.5123
87.3427	11.0000	0.5244
87.3710	10.1750	0.5044
87.3992	11.0500	0.5256
87.4275	11.6750	0.5403
87.4558	10.2500	0.5062
87.4840	10.6750	0.5166
87.5123	11.5250	0.5368
87.5406	11.2500	0.5303
87.5688	11.6000	0.5385
87.5971	10.7000	0.5172
87.6254	10.2250	0.5056
87.6536	11.0000	0.5244
87.6819	11.9750	0.5472
87.7102	10.7500	0.5184
87.7384	10.3250	0.5081
87.7667	11.4750	0.5356
87.7950	11.4000	0.5339
87.8232	11.6250	0.5391
87.8515	10.7750	0.5190
87.8797	10.8250	0.5202
87.9080	10.4000	0.5099
87.9363	10.9750	0.5238
87.9645	11.1750	0.5286
87.9928	11.2500	0.5303
88.0211	10.5500	0.5136
88.0493	10.8250	0.5202
88.0776	11.4750	0.5356
88.1059	11.2750	0.5309
88.1341	11.9259	0.5426
88.1624	10.9877	0.5209
88.1907	11.7037	0.5376
88.2189	11.8765	0.5415
88.2472	11.9268	0.5393
88.2755	11.0000	0.5180
88.3037	10.7805	0.5128
88.3320	11.5610	0.5310
88.3603	11.2439	0.5237
88.3885	11.2439	0.5237
88.4168	10.4634	0.5052
88.4451	11.6098	0.5321
88.4733	11.4146	0.5276
88.5016	11.3171	0.5254
88.5299	11.1951	0.5225
88.5581	11.7805	0.5360
88.5864	11.0976	0.5203
88.6147	11.3415	0.5259
88.6429	11.5366	0.5305
88.6712	11.8537	0.5377
88.6994	11.8293	0.5371
88.7277	11.5610	0.5310
88.7560	10.9756	0.5174
88.7842	10.3415	0.5022
88.8125	11.1707	0.5220
88.8408	11.4634	0.5288
88.8690	11.7561	0.5355
88.8973	11.0732	0.5197
88.9256	11.2683	0.5242
88.9538	11.2195	0.5231
88.9821	11.8537	0.5377
89.0104	11.3415	0.5259
89.0386	11.0732	0.5197
89.0669	11.7805	0.5360
89.0952	11.3171	0.5254
89.1234	10.6098	0.5087
89.1517	10.8537	0.5145
89.1800	11.8537	0.5377
89.2082	12.3902	0.5497
89.2365	12.2683	0.5470
89.2648	12.4634	0.5513
89.2930	12.0244	0.5416
89.3213	12.0488	0.5421
89.3496	11.5181	0.5268
89.3778	11.4699	0.5257
89.4061	12.0952	0.5366
89.4344	11.3571	0.5200
89.4626	11.8095	0.5303
89.4909	12.0952	0.5366
89.5192	11.5000	0.5233
89.5474	11.9524	0.5335
89.5757	12.0952	0.5366
89.6039	11.7381	0.5287
89.6322	11.0476	0.5129
89.6605	12.3810	0.5429
89.6887	11.9762	0.5340
89.7170	11.1429	0.5151
89.7453	11.2381	0.5173
89.7735	12.3333	0.5419
89.8018	11.6905	0.5276
89.8301	11.7381	0.5287
89.8583	13.1905	0.5604
89.8866	11.6190	0.5260
89.9149	11.6190	0.5260
89.9431	11.6190	0.5260
89.9714	11.2857	0.5184
89.9997	10.6429	0.5034
90.0279	13.0000	0.5563
90.0562	12.3571	0.5424
90.0845	11.4762	0.5227
90.1127	12.4762	0.5450
90.1410	12.4286	0.5440
90.1693	12.0238	0.5351
90.1975	12.1190	0.5372
90.2258	11.9524	0.5335
90.2541	11.6667	0.5270
90.2823	11.7619	0.5292
90.3106	13.0952	0.5584
90.3389	12.3571	0.5424
90.3671	12.8333	0.5528
90.3954	11.3333	0.5195
90.4236	12.9048	0.5543
90.4519	12.3571	0.5424
90.4802	11.9762	0.5340
90.5084	11.3333	0.5195
90.5367	11.8571	0.5313
90.5650	11.9048	0.5324
90.5932	11.9070	0.5262
90.6215	12.0000	0.5283
90.6498	12.3256	0.5354
90.6780	12.4651	0.5384
90.7063	13.0698	0.5513
90.7346	12.5814	0.5409
90.7628	12.7674	0.5449
90.7911	11.9070	0.5262
90.8194	12.6047	0.5414
90.8476	11.4186	0.5153
90.8759	12.0930	0.5303
90.9042	12.2326	0.5334
90.9324	13.0000	0.5498
90.9607	13.2558	0.5552
90.9890	12.3256	0.5354
91.0172	12.0930	0.5303
91.0455	11.6512	0.5205
91.0738	11.4186	0.5153
91.1020	12.5349	0.5399
91.1303	13.0000	0.5498
91.1586	13.3256	0.5567
91.1868	12.4186	0.5374
91.2151	12.3721	0.5364
91.2433	12.5116	0.5394
91.2716	12.4186	0.5374
91.2999	12.4186	0.5374
91.3281	11.3953	0.5148
91.3564	12.1860	0.5323
91.3847	11.9535	0.5272
91.4129	13.2093	0.5543
91.4412	13.1860	0.5538
91.4695	14.0000	0.5706
91.4977	12.8140	0.5459
91.5260	12.6744	0.5429
91.5543	12.1860	0.5323
91.5825	13.2326	0.5547
91.6108	12.4419	0.5379
91.6391	12.8605	0.5469
91.6673	12.4884	0.5389
91.6956	12.7442	0.5444
91.7239	12.7907	0.5454
91.7521	12.4368	0.5347
91.7804	13.1264	0.5493
91.8087	12.2727	0.5281
91.8369	12.7727	0.5388
91.8652	13.0682	0.5450
91.8935	13.4773	0.5534
91.9217	12.7273	0.5378
91.9500	12.9318	0.5421
91.9783	13.4091	0.5520
92.0065	12.5682	0.5345
92.0348	12.6136	0.5354
92.0631	12.3182	0.5291
92.0913	13.0227	0.5440
92.1196	12.9773	0.5431
92.1478	12.3636	0.5301
92.1761	12.9545	0.5426
92.2044	12.2045	0.5267
92.2326	13.5909	0.5558
92.2609	13.7045	0.5581
92.2892	12.9318	0.5421
92.3174	13.3182	0.5502
92.3457	13.8864	0.5618
92.3740	12.9091	0.5417
92.4022	13.8864	0.5618
92.4305	13.1136	0.5459
92.4588	13.0000	0.5436
92.4870	14.8636	0.5812
92.5153	13.5682	0.5553
92.5436	12.7273	0.5378
92.5718	14.2500	0.5691
92.6001	13.6818	0.5576
92.6284	13.9773	0.5636
92.6566	14.6591	0.5772
92.6849	13.3636	0.5511
92.7132	13.5455	0.5548
92.7414	12.8409	0.5402
92.7697	13.1591	0.5469
92.7980	13.4545	0.5530
92.8262	13.2955	0.5497
92.8545	14.0682	0.5654
92.8828	13.5227	0.5544
92.9110	13.7727	0.5595
92.9393	13.1236	0.5431
92.9675	12.5169	0.5304
92.9958	14.0899	0.5627
93.0241	13.6404	0.5536
93.0523	13.1556	0.5407
93.0806	13.4667	0.5470
93.1089	14.5333	0.5683
93.1371	13.9333	0.5564
93.1654	13.6889	0.5515
93.1937	15.2000	0.5812
93.2219	14.0667	0.5591
93.2502	14.4889	0.5674
93.2785	13.8889	0.5556
93.3067	14.3111	0.5639
93.3350	14.3556	0.5648
93.3633	13.6222	0.5502
93.3915	14.0444	0.5587
93.4198	14.0000	0.5578
93.4481	15.6000	0.5888
93.4763	14.7778	0.5731
93.5046	14.3333	0.5644
93.5329	13.7333	0.5524
93.5611	14.2889	0.5635
93.5894	13.4667	0.5470
93.6177	14.7778	0.5731
93.6459	14.3333	0.5644
93.6742	13.2000	0.5416
93.7025	14.8222	0.5739
93.7307	13.7556	0.5529
93.7590	13.6444	0.5506
93.7872	14.5556	0.5687
93.8155	13.4889	0.5475
93.8438	14.9556	0.5765
93.8720	15.2444	0.5820
93.9003	15.0667	0.5786
93.9286	14.7333	0.5722
93.9568	13.6222	0.5502
93.9851	14.9556	0.5765
94.0134	14.9556	0.5765
94.0416	15.1778	0.5808
94.0699	14.8000	0.5735
94.0982	15.2747	0.5794
94.1264	14.1538	0.5577
94.1547	14.1538	0.5577
94.1830	14.6593	0.5676
94.2112	14.7692	0.5697
94.2395	15.1648	0.5773
94.2678	13.4348	0.5404
94.2960	14.2609	0.5568
94.3243	15.3043	0.5768
94.3526	14.4565	0.5606
94.3808	14.8913	0.5690
94.4091	15.1304	0.5735
94.4374	13.9783	0.5512
94.4656	15.3478	0.5776
94.4939	14.0435	0.5525
94.5222	14.7391	0.5661
94.5504	14.5652	0.5627
94.5787	15.2174	0.5752
94.6070	14.7609	0.5665
94.6352	14.9130	0.5694
94.6635	14.7826	0.5669
94.6917	14.3478	0.5585
94.7200	15.9130	0.5882
94.7483	15.3913	0.5784
94.7765	15.4783	0.5801
94.8048	15.3913	0.5784
94.8331	15.2826	0.5764
94.8613	15.4130	0.5788
94.8896	15.3478	0.5776
94.9179	16.3043	0.5954
94.9461	16.4348	0.5977
94.9744	14.5870	0.5631
95.0027	14.8261	0.5677
95.0309	15.7391	0.5849
95.0592	16.9130	0.6064
95.0875	14.6522	0.5644
95.1157	15.8043	0.5862
95.1440	14.9130	0.5694
95.1723	16.9348	0.6068
95.2005	15.9565	0.5890
95.2288	15.5652	0.5817
95.2571	15.7391	0.5849
95.2853	15.3118	0.5738
95.3136	15.7634	0.5822
95.3419	15.7634	0.5822
95.3701	15.6774	0.5806
95.3984	16.8172	0.6014
95.4267	15.2043	0.5718
95.4549	15.3118	0.5738
95.4832	16.0430	0.5874
95.5114	15.8723	0.5811
95.5397	16.2553	0.5881
95.5680	15.0851	0.5665
95.5962	16.4894	0.5923
95.6245	16.8936	0.5995
95.6528	16.4043	0.5908
95.6810	16.2340	0.5877
95.7093	15.7872	0.5796
95.7376	16.1489	0.5862
95.7658	16.0638	0.5846
95.7941	16.1064	0.5854
95.8224	15.7660	0.5792
95.8506	16.0213	0.5838
95.8789	15.9149	0.5819
95.9072	16.2979	0.5889
95.9354	16.2766	0.5885
95.9637	16.6596	0.5954
95.9920	17.2766	0.6063
96.0202	17.7234	0.6141
96.0485	15.8298	0.5803
96.0768	16.1702	0.5866
96.1050	15.6809	0.5776
96.1333	16.7872	0.5976
96.1616	16.9362	0.6003
96.1898	17.5532	0.6111
96.2181	16.7447	0.5969
96.2464	16.9149	0.5999
96.2746	16.5957	0.5942
96.3029	17.1277	0.6037
96.3312	16.9149	0.5999
96.3594	17.1915	0.6048
96.3877	16.7234	0.5965
96.4159	17.5957	0.6119
96.4442	18.0842	0.6170
96.4725	18.3789	0.6220
96.5007	17.5789	0.6083
96.5290	18.8421	0.6298
96.5573	19.0737	0.6337
96.5855	18.3158	0.6210
96.6138	17.5579	0.6080
96.6421	19.3684	0.6386
96.6703	18.8842	0.6305
96.6986	18.4632	0.6235
96.7269	18.5000	0.6208
96.7551	19.2292	0.6329
96.7834	19.8333	0.6428
96.8117	19.7292	0.6411
96.8399	20.3125	0.6505
96.8682	20.3958	0.6519
96.8965	21.0000	0.6614
96.9247	20.9375	0.6605
96.9530	20.9375	0.6605
96.9813	20.5625	0.6545
97.0095	21.1250	0.6634
97.0378	21.5833	0.6706
97.0661	22.5208	0.6850
97.0943	22.7083	0.6878
97.1226	22.6667	0.6872
97.1509	22.5208	0.6850
97.1791	23.9375	0.7062
97.2074	24.4167	0.7132
97.2356	25.6875	0.7315
97.2639	25.5208	0.7292
97.2922	25.3333	0.7265
97.3204	25.8542	0.7339
97.3487	27.1250	0.7517
97.3770	26.6250	0.7448
97.4052	27.9375	0.7629
97.4335	28.0833	0.7649
97.4618	28.6667	0.7728
97.4900	29.0833	0.7784
97.5183	30.6875	0.7996
97.5466	30.0625	0.7914
97.5748	32.4375	0.8221
97.6031	32.6598	0.8206
97.6314	33.4021	0.8299
97.6596	34.5773	0.8444
97.6879	35.2577	0.8526
97.7162	35.5258	0.8559
97.7444	37.9794	0.8849
97.7727	38.2062	0.8876
97.8010	40.3093	0.9117
97.8292	39.5876	0.9035
97.8575	38.0206	0.8854
97.8858	41.0103	0.9196
97.9140	41.2784	0.9226
97.9423	39.7320	0.9051
97.9706	43.0612	0.9374
97.9988	41.3673	0.9188
98.0271	43.1837	0.9388
98.0553	40.7959	0.9125
98.0836	40.8980	0.9136
98.1119	40.4694	0.9088
98.1401	39.8776	0.9021
98.1684	40.2653	0.9065
98.1967	37.5102	0.8749
98.2249	36.2653	0.8603
98.2532	36.4286	0.8622
98.2815	35.3878	0.8498
98.3097	35.6327	0.8528
98.3380	35.2857	0.8486
98.3663	33.0408	0.8212
98.3945	32.2245	0.8110
98.4228	31.0612	0.7962
98.4511	30.2245	0.7854
98.4793	29.3265	0.7736
98.5076	28.4898	0.7625
98.5359	28.7143	0.7655
98.5641	26.6122	0.7370
98.5924	25.8571	0.7264
98.6207	24.3469	0.7049
98.6489	24.9592	0.7137
98.6772	23.1837	0.6878
98.7055	23.1020	0.6866
98.7337	23.1837	0.6878
98.7620	21.7959	0.6669
98.7903	21.8163	0.6673
98.8185	21.8571	0.6679
98.8468	20.9796	0.6543
98.8751	20.6531	0.6492
98.9033	21.1224	0.6566
98.9316	20.7959	0.6515
98.9598	19.7143	0.6343
98.9881	19.0204	0.6230
99.0164	18.2020	0.6064
99.0446	19.1919	0.6227
99.0729	20.6465	0.6458
99.1012	18.3838	0.6094
99.1294	19.5758	0.6289
99.1577	18.7071	0.6148
99.1860	18.7200	0.6119
99.2142	19.1400	0.6187
99.2425	18.5400	0.6089
99.2708	18.3000	0.6050
99.2990	17.6200	0.5936
99.3273	17.4000	0.5899
99.3556	18.7000	0.6116
99.3838	17.0400	0.5838
99.4121	18.4000	0.6066
99.4404	18.3800	0.6063
99.4686	17.8600	0.5977
99.4969	16.8800	0.5810
99.5252	17.7600	0.5960
99.5534	18.2400	0.6040
99.5817	16.8800	0.5810
99.6100	17.3200	0.5886
99.6382	17.9200	0.5987
99.6665	17.2600	0.5875
99.6948	16.6600	0.5772
99.7230	17.8000	0.5967
99.7513	17.1400	0.5855
99.7795	18.3000	0.6050
99.8078	16.9000	0.5814
99.8361	18.0600	0.6010
99.8643	17.6600	0.5943
99.8926	17.0400	0.5838
99.9209	17.6800	0.5946
99.9491	18.6600	0.6109
99.9774	18.2200	0.6037
100.0057	16.6000	0.5762
100.0339	17.4000	0.5899
100.0622	17.3600	0.5892
100.0905	18.4200	0.6070
100.1187	17.0400	0.5838
100.1470	15.7800	0.5618
100.1753	17.9200	0.5987
100.2035	17.6600	0.5943
100.2318	16.8400	0.5803
100.2601	17.7400	0.5957
100.2883	16.6800	0.5776
100.3166	18.4400	0.6073
100.3449	18.2000	0.6033
100.3731	17.6200	0.5936
100.4014	17.6238	0.5907
100.4297	16.0784	0.5615
100.4579	17.8431	0.5915
100.4862	17.5098	0.5859
100.5145	18.6863	0.6053
100.5427	18.5882	0.6037
100.5710	17.0196	0.5777
100.5993	17.3333	0.5830
100.6275	16.4510	0.5680
100.6558	17.6863	0.5889
100.6840	16.4706	0.5683
100.7123	16.9804	0.5770
100.7406	17.2745	0.5820
100.7688	17.6471	0.5882
100.7971	17.2549	0.5817
100.8254	17.5294	0.5863
100.8536	17.0980	0.5790
100.8819	16.8235	0.5743
100.9102	17.2941	0.5823
100.9384	17.1765	0.5803
100.9667	17.4510	0.5850
100.9950	17.1373	0.5797
101.0232	18.3529	0.5999
101.0515	18.4314	0.6012
101.0798	16.8824	0.5753
101.1080	17.4902	0.5856
101.1363	17.0196	0.5777
101.1646	16.8627	0.5750
101.1928	17.2941	0.5823
101.2211	18.3529	0.5999
101.2494	16.9216	0.5760
101.2776	16.5098	0.5690
101.3059	16.7843	0.5737
101.3342	16.5882	0.5703
101.3624	17.1765	0.5803
101.3907	17.3529	0.5833
101.4190	17.2157	0.5810
101.4472	17.3529	0.5833
101.4755	18.1373	0.5963
101.5037	17.3529	0.5833
101.5320	17.0392	0.5780
101.5603	18.4510	0.6015
101.5885	17.8431	0.5915
101.6168	18.1765	0.5970
101.6451	17.1765	0.5803
101.6733	16.9020	0.5757
101.7016	17.5686	0.5869
101.7299	18.4118	0.6008
101.7581	17.3922	0.5840
101.7864	17.5098	0.5859
101.8147	17.8431	0.5915
101.8429	17.2621	0.5790
101.8712	17.2500	0.5760
101.8995	18.5769	0.5977
101.9277	18.0769	0.5896
101.9560	17.2885	0.5766
101.9843	18.3462	0.5940
102.0125	18.8654	0.6023
102.0408	18.1731	0.5912
102.0691	16.7692	0.5679
102.0973	18.2885	0.5930
102.1256	17.5577	0.5811
102.1539	17.5769	0.5814
102.1821	17.4231	0.5788
102.2104	17.0769	0.5731
102.2387	18.1154	0.5902
102.2669	17.8846	0.5865
102.2952	17.8654	0.5861
102.3234	17.7115	0.5836
102.3517	16.8077	0.5685
102.3800	16.8269	0.5689
102.4082	16.3654	0.5610
102.4365	18.1923	0.5915
102.4648	17.3846	0.5782
102.4930	18.0769	0.5896
102.5213	18.6923	0.5996
102.5496	17.7885	0.5849
102.5778	17.3462	0.5776
102.6061	16.3269	0.5603
102.6344	17.4038	0.5785
102.6626	17.4615	0.5795
102.6909	18.0769	0.5896
102.7192	17.0962	0.5734
102.7474	17.8462	0.5858
102.7757	17.7500	0.5842
102.8040	17.0577	0.5727
102.8322	18.5192	0.5968
102.8605	16.3654	0.5610
102.8888	16.2885	0.5597
102.9170	18.1731	0.5912
102.9453	17.1731	0.5747
102.9736	17.7115	0.5836
103.0018	17.8654	0.5861
103.0301	17.0962	0.5734
103.0584	18.0962	0.5899
103.0866	17.1923	0.5750
103.1149	18.5385	0.5971
103.1432	17.6346	0.5823
103.1714	17.7885	0.5849
103.1997	17.3462	0.5776
103.2279	16.4615	0.5626
103.2562	15.8667	0.5497
103.2845	17.7714	0.5818
103.3127	16.9714	0.5686
103.3410	17.1321	0.5685
103.3693	18.7547	0.5949
103.3975	17.6415	0.5769
103.4258	17.1698	0.5692
103.4541	18.8302	0.5961
103.4823	17.6415	0.5769
103.5106	17.1887	0.5695
103.5389	16.5660	0.5591
103.5671	16.9057	0.5648
103.5954	18.7358	0.5946
103.6237	17.9811	0.5825
103.6519	17.7547	0.5788
103.6802	18.8302	0.5961
103.7085	17.3585	0.5723
103.7367	17.2642	0.5707
103.7650	17.6792	0.5776
103.7933	16.5283	0.5584
103.8215	18.2264	0.5864
103.8498	17.0943	0.5679
103.8781	17.9434	0.5819
103.9063	17.5472	0.5754
103.9346	17.1698	0.5692
103.9629	17.2264	0.5701
103.9911	16.7358	0.5619
104.0194	16.8868	0.5645
104.0476	17.9811	0.5825
104.0759	16.6604	0.5607
104.1042	17.4151	0.5732
104.1324	17.0000	0.5664
104.1607	17.4528	0.5738
104.1890	17.6038	0.5763
104.2172	17.6415	0.5769
104.2455	17.5094	0.5748
104.2738	17.5660	0.5757
104.3020	17.3396	0.5720
104.3303	17.6038	0.5763
104.3586	18.2453	0.5867
104.3868	17.4906	0.5745
104.4151	17.4717	0.5742
104.4434	17.3962	0.5729
104.4716	17.4717	0.5742
104.4999	17.0189	0.5667
104.5282	17.6792	0.5776
104.5564	17.7736	0.5791
104.5847	17.1321	0.5685
104.6130	16.8491	0.5638
104.6412	17.9434	0.5819
104.6695	16.9159	0.5623
104.6978	18.5607	0.5890
104.7260	18.0000	0.5800
104.7543	17.3271	0.5691
104.7826	16.0374	0.5475
104.8108	16.7037	0.5562
104.8391	18.0556	0.5782
104.8674	16.8519	0.5586
104.8956	17.2222	0.5647
104.9239	15.9630	0.5437
104.9521	17.9815	0.5771
104.9804	17.7593	0.5735
105.0087	16.8519	0.5586
105.0369	17.1667	0.5638
105.0652	17.8889	0.5756
105.0935	17.1296	0.5632
105.1217	17.5741	0.5705
105.1500	18.2593	0.5815
105.1783	17.6852	0.5723
105.2065	17.3889	0.5675
105.2348	17.6481	0.5717
105.2631	17.5000	0.5693
105.2913	17.1111	0.5629
105.3196	17.0556	0.5620
105.3479	17.3333	0.5666
105.3761	17.0926	0.5626
105.4044	16.7963	0.5577
105.4327	16.9815	0.5608
105.4609	18.0741	0.5785
105.4892	17.3333	0.5666
105.5175	16.4815	0.5525
105.5457	18.2037	0.5806
105.5740	17.0926	0.5626
105.6023	18.3519	0.5830
105.6305	17.1481	0.5635
105.6588	17.6667	0.5720
105.6871	16.7222	0.5565
105.7153	18.0000	0.5774
105.7436	16.7407	0.5568
105.7718	17.8889	0.5756
105.8001	17.1852	0.5641
105.8284	16.2778	0.5490
105.8566	17.2593	0.5653
105.8849	16.1667	0.5472
105.9132	17.6667	0.5720
105.9414	16.5926	0.5543
105.9697	17.9259	0.5762
105.9980	16.7593	0.5571
106.0262	18.1481	0.5797
106.0545	17.6111	0.5711
106.0828	17.0642	0.5596
106.1110	17.6697	0.5694
106.1393	16.9908	0.5584
106.1676	17.6514	0.5691
106.1958	16.6606	0.5529
106.2241	18.5138	0.5828
106.2524	18.9174	0.5892
106.2806	17.2364	0.5598
106.3089	17.5273	0.5645
106.3372	17.5091	0.5642
106.3654	18.1455	0.5744
106.3937	16.7636	0.5521
106.4220	17.4909	0.5639
106.4502	16.9273	0.5548
106.4785	16.6909	0.5509
106.5068	16.9455	0.5551
106.5350	15.9818	0.5391
106.5633	18.9091	0.5863
106.5915	16.9273	0.5548
106.6198	16.7091	0.5512
106.6481	17.1818	0.5589
106.6763	18.4000	0.5784
106.7046	18.0727	0.5732
106.7329	18.8182	0.5849
106.7611	17.5455	0.5648
106.7894	16.8545	0.5536
106.8177	16.8545	0.5536
106.8459	17.6909	0.5671
106.8742	17.6000	0.5657
106.9025	16.7273	0.5515
106.9307	16.6909	0.5509
106.9590	17.4182	0.5628
106.9873	17.3818	0.5622
107.0155	17.9273	0.5709
107.0438	17.6182	0.5660
107.0721	17.4000	0.5625
107.1003	15.7636	0.5354
107.1286	16.8727	0.5539
107.1569	17.9636	0.5715
107.1851	17.4364	0.5630
107.2134	17.2727	0.5604
107.2417	17.7273	0.5677
107.2699	17.7273	0.5677
107.2982	17.1091	0.5577
107.3265	17.6182	0.5660
107.3547	17.1455	0.5583
107.3830	17.7636	0.5683
107.4113	17.5273	0.5645
107.4395	16.7636	0.5521
107.4678	16.8909	0.5542
107.4960	17.1892	0.5565
107.5243	16.8649	0.5512
107.5526	17.1532	0.5559
107.5808	16.1081	0.5387
107.6091	17.1712	0.5562
107.6374	17.2793	0.5580
107.6656	17.3694	0.5594
107.6939	17.4054	0.5600
107.7222	17.3874	0.5597
107.7504	17.0714	0.5521
107.7787	17.1964	0.5541
107.8070	17.6964	0.5621
107.8352	16.3929	0.5410
107.8635	17.5000	0.5590
107.8918	16.8929	0.5492
107.9200	17.1964	0.5541
107.9483	17.5714	0.5602
107.9766	18.0357	0.5675
108.0048	17.8571	0.5647
108.0331	17.3393	0.5564
108.0614	17.7857	0.5636
108.0896	17.5893	0.5604
108.1179	17.6607	0.5616
108.1462	17.0000	0.5510
108.1744	16.7679	0.5472
108.2027	17.8036	0.5638
108.2310	17.1071	0.5527
108.2592	17.5000	0.5590
108.2875	18.1964	0.5700
108.3157	18.0179	0.5672
108.3440	17.9821	0.5667
108.3723	17.0536	0.5518
108.4005	17.4464	0.5582
108.4288	17.3750	0.5570
108.4571	17.7321	0.5627
108.4853	17.0000	0.5510
108.5136	18.3036	0.5717
108.5419	16.4107	0.5413
108.5701	17.4286	0.5579
108.5984	16.7321	0.5466
108.6267	17.9107	0.5655
108.6549	17.3750	0.5570
108.6832	17.8214	0.5641
108.7115	17.2252	0.5571
108.7397	17.4727	0.5636
108.7680	16.6055	0.5520
108.7963	18.1481	0.5797
108.8245	17.8692	0.5779
108.8528	16.9245	0.5651
108.8811	17.0667	0.5702
108.9093	17.4808	0.5798
108.9376	17.2621	0.5790
108.9659	16.9804	0.5770
108.9941	17.7426	0.5927
109.0224	16.4200	0.5731
109.0507	16.9495	0.5852
109.0789	16.6327	0.5826
109.1072	16.8247	0.5890
109.1355	17.7917	0.6088
109.1637	17.4316	0.6058
109.1920	16.9149	0.5999
109.2202	17.0426	0.6022
109.2485	18.8602	0.6369
109.2768	16.8478	0.6052
109.3050	18.0000	0.6290
109.3333	18.4444	0.6402
109.3616	17.6404	0.6296
109.3898	16.7273	0.6166
109.4181	16.8966	0.6232
109.4464	17.1163	0.6309
109.4746	18.8000	0.6651
109.5029	17.6905	0.6490
109.5312	18.4578	0.6669
109.5594	17.3415	0.6504
109.5877	18.5679	0.6771
109.6160	19.2750	0.6942
109.6442	17.7975	0.6712
109.6725	17.6923	0.6735
109.7008	17.3766	0.6718
109.7290	16.7368	0.6637
109.7573	17.8667	0.6902
109.7856	17.6216	0.6901
109.8138	18.3562	0.7092
109.8421	17.2500	0.6922
109.8704	17.3239	0.6986
109.8986	17.5714	0.7085
109.9269	17.5652	0.7135
109.9552	17.3235	0.7138
109.9834	17.4627	0.7220
