1.540593
20.0141	33.0556	3.0302
20.0424	40.2778	3.3449
20.0707	46.1111	3.5789
20.0989	46.6667	3.6004
20.1272	43.3333	3.4694
20.1555	34.4444	3.0932
20.1837	39.4444	3.3101
20.2120	37.7778	3.2394
20.2403	35.0000	3.1180
20.2685	42.5000	3.4359
20.2968	38.3333	3.2632
20.3251	38.8889	3.2867
20.3533	39.1667	3.2984
20.3816	37.2222	3.2155
20.4099	37.2222	3.2155
20.4381	41.3889	3.3907
20.4664	36.1111	3.1672
20.4946	39.7222	3.3217
20.5229	32.2222	2.9918
20.5512	37.7778	3.2394
20.5794	38.6111	3.2750
20.6077	36.9444	3.2035
20.6360	32.7778	3.0174
20.6642	36.9444	3.2035
20.6925	36.6667	3.1914
20.7208	40.2778	3.3449
20.7490	34.1667	3.0807
20.7773	40.8333	3.3679
20.8056	34.1667	3.0807
20.8338	45.5556	3.5573
20.8621	43.0556	3.4583
20.8904	38.6111	3.2750
20.9186	43.6111	3.4805
20.9469	40.5556	3.3564
20.9752	36.1111	3.1672
21.0034	34.1667	3.0807
21.0317	40.0000	3.3333
21.0600	36.1111	3.1672
21.0882	36.3889	3.1793
21.1165	38.6111	3.2750
21.1448	34.7222	3.1056
21.1730	39.1667	3.2984
21.2013	36.6667	3.1914
21.2296	32.7778	3.0174
21.2578	37.7778	3.2394
21.2861	34.0000	2.9155
21.3143	39.2500	3.1325
21.3426	38.0000	3.0822
21.3709	39.0000	3.1225
21.3991	33.2500	2.8831
21.4274	36.2500	3.0104
21.4557	39.5000	3.1425
21.4839	29.7500	2.7272
21.5122	30.0000	2.7386
21.5405	35.0000	2.9580
21.5687	32.7500	2.8614
21.5970	31.2500	2.7951
21.6253	41.5000	3.2210
21.6535	32.2500	2.8395
21.6818	37.2500	3.0516
21.7101	38.0000	3.0822
21.7383	35.5000	2.9791
21.7666	36.2500	3.0104
21.7949	30.7500	2.7726
21.8231	35.0000	2.9580
21.8514	35.5000	2.9791
21.8797	35.5000	2.9791
21.9079	31.2500	2.7951
21.9362	31.7500	2.8174
21.9645	28.7500	2.6810
21.9927	35.2500	2.9686
22.0210	32.2500	2.8395
22.0493	38.5000	3.1024
22.0775	32.2500	2.8395
22.1058	31.7500	2.8174
22.1340	31.5000	2.8062
22.1623	31.7500	2.8174
22.1906	37.7500	3.0721
22.2188	31.2500	2.7951
22.2471	33.0000	2.8723
22.2754	34.7500	2.9475
22.3036	30.7500	2.7726
22.3319	31.2500	2.7951
22.3602	32.2500	2.8395
22.3884	36.0000	3.0000
22.4167	33.7500	2.9047
22.4450	30.5000	2.7613
22.4732	30.2500	2.7500
22.5015	33.5000	2.8940
22.5298	37.7500	3.0721
22.5580	32.0000	2.8284
22.5863	26.5000	2.5739
22.6146	29.7500	2.7272
22.6428	30.5000	2.7613
22.6711	26.2500	2.5617
22.6994	33.0000	2.8723
22.7276	32.0000	2.8284
22.7559	31.7500	2.8174
22.7842	27.7500	2.6339
22.8124	28.2500	2.6575
22.8407	31.7500	2.8174
22.8690	33.2500	2.8831
22.8972	31.0000	2.7839
22.9255	28.2500	2.6575
22.9538	30.0000	2.7386
22.9820	29.0000	2.6926
23.0103	31.0000	2.7839
23.0385	30.0000	2.7386
23.0668	27.5000	2.6220
23.0951	29.7500	2.7272
23.1233	25.0000	2.5000
23.1516	32.0000	2.8284
23.1799	26.0000	2.5495
23.2081	26.5000	2.5739
23.2364	26.5000	2.5739
23.2647	29.7500	2.7272
23.2929	32.0000	2.8284
23.3212	32.0000	2.8284
23.3495	27.5000	2.6220
23.3777	28.5000	2.6693
23.4060	29.5000	2.7157
23.4343	30.7500	2.7726
23.4625	30.5000	2.7613
23.4908	32.2500	2.8395
23.5191	30.2500	2.7500
23.5473	25.7500	2.5372
23.5756	29.2500	2.7042
23.6039	27.0000	2.5981
23.6321	31.0000	2.7839
23.6604	28.0000	2.6458
23.6887	29.0000	2.6926
23.7169	31.2500	2.7951
23.7452	32.2500	2.8395
23.7735	27.7500	2.6339
23.8017	27.7500	2.6339
23.8300	27.2500	2.6101
23.8582	25.7500	2.5372
23.8865	31.2500	2.7951
23.9148	31.5000	2.8062
23.9430	28.0000	2.6458
23.9713	29.5000	2.7157
23.9996	32.0000	2.8284
24.0278	32.7500	2.8614
24.0561	27.0000	2.5981
24.0844	28.5000	2.6693
24.1126	26.0000	2.5495
24.1409	30.0000	2.7386
24.1692	30.5000	2.7613
24.1974	28.7500	2.6810
24.2257	27.2500	2.6101
24.2540	26.5000	2.5739
24.2822	31.2500	2.7951
24.3105	29.0000	2.6926
24.3388	25.7500	2.5372
24.3670	28.7500	2.6810
24.3953	28.7500	2.6810
24.4236	28.5000	2.6693
24.4518	27.2500	2.6101
24.4801	26.7500	2.5860
24.5084	28.2500	2.6575
24.5366	26.7500	2.5860
24.5649	31.0000	2.7839
24.5932	24.5000	2.4749
24.6214	29.7500	2.7272
24.6497	26.0000	2.5495
24.6780	30.2500	2.7500
24.7062	24.5000	2.4749
24.7345	27.7500	2.6339
24.7627	28.2500	2.6575
24.7910	25.7500	2.5372
24.8193	29.0000	2.6926
24.8475	28.0000	2.6458
24.8758	25.5000	2.5249
24.9041	27.5000	2.6220
24.9323	26.0000	2.5495
24.9606	20.2500	2.2500
24.9889	24.0000	2.4495
25.0171	26.5000	2.5739
25.0454	28.5000	2.6693
25.0737	25.7500	2.5372
25.1019	24.2500	2.4622
25.1302	27.1429	2.5422
25.1585	24.5238	2.4164
25.1867	22.6190	2.3207
25.2150	28.5714	2.6082
25.2433	31.4286	2.7355
25.2715	21.9048	2.2837
25.2998	26.1905	2.4972
25.3281	27.1429	2.5422
25.3563	27.1429	2.5422
25.3846	25.2381	2.4513
25.4129	25.7143	2.4744
25.4411	27.6190	2.5644
25.4694	25.0000	2.4398
25.4977	28.3333	2.5973
25.5259	23.8095	2.3810
25.5542	26.9048	2.5310
25.5824	24.2857	2.4046
25.6107	21.4286	2.2588
25.6390	22.6190	2.3207
25.6672	26.6667	2.5198
25.6955	26.4286	2.5085
25.7238	25.2273	2.3945
25.7520	24.0909	2.3399
25.7803	25.2273	2.3945
25.8086	26.3636	2.4478
25.8368	26.8182	2.4688
25.8651	24.0909	2.3399
25.8934	19.3182	2.0954
25.9216	25.0000	2.3837
25.9499	29.5455	2.5913
25.9782	25.2273	2.3945
26.0064	25.2273	2.3945
26.0347	24.7727	2.3728
26.0630	26.1364	2.4372
26.0912	24.3182	2.3509
26.1195	27.7273	2.5103
26.1478	23.8636	2.3289
26.1760	24.5455	2.3619
26.2043	23.4091	2.3066
26.2326	24.7727	2.3728
26.2608	25.9091	2.4266
26.2891	23.6364	2.3177
26.3174	22.2727	2.2499
26.3456	25.4545	2.4052
26.3739	26.1364	2.4372
26.4021	22.0455	2.2384
26.4304	21.1364	2.1917
26.4587	24.0909	2.3399
26.4869	26.1364	2.4372
26.5152	25.4545	2.4052
26.5435	23.4091	2.3066
26.5717	22.0455	2.2384
26.6000	21.8182	2.2268
26.6283	21.3636	2.2035
26.6565	24.3182	2.3509
26.6848	22.0455	2.2384
26.7131	23.1818	2.2953
26.7413	21.3636	2.2035
26.7696	22.0455	2.2384
26.7979	22.9545	2.2841
26.8261	25.0000	2.3837
26.8544	24.7727	2.3728
26.8827	22.7273	2.2727
26.9109	23.8636	2.3289
26.9392	22.0455	2.2384
26.9675	22.2727	2.2499
26.9957	23.1818	2.2953
27.0240	20.9091	2.1799
27.0523	20.4545	2.1561
27.0805	23.1818	2.2953
27.1088	21.5909	2.2152
27.1371	25.2273	2.3945
27.1653	21.8182	2.2268
27.1936	22.2727	2.2499
27.2219	23.4091	2.3066
27.2501	23.1818	2.2953
27.2784	18.4091	2.0455
27.3066	22.2727	2.2499
27.3349	22.5000	2.2613
27.3632	23.4091	2.3066
27.3914	22.0455	2.2384
27.4197	23.4091	2.3066
27.4480	22.2727	2.2499
27.4762	21.8182	2.2268
27.5045	18.8636	2.0706
27.5328	25.6818	2.4159
27.5610	23.4091	2.3066
27.5893	24.7727	2.3728
27.6176	20.6818	2.1680
27.6458	20.6818	2.1680
27.6741	22.0455	2.2384
27.7024	15.4545	1.8741
27.7306	23.8636	2.3289
27.7589	19.7727	2.1199
27.7872	21.8182	2.2268
27.8154	18.4091	2.0455
27.8437	21.5909	2.2152
27.8720	22.2727	2.2499
27.9002	22.0455	2.2384
27.9285	19.0909	2.0830
27.9568	24.0909	2.3399
27.9850	23.4091	2.3066
28.0133	21.5909	2.2152
28.0416	22.9545	2.2841
28.0698	22.7273	2.2727
28.0981	24.3182	2.3509
28.1263	23.1818	2.2953
28.1546	21.3636	2.2035
28.1829	19.3182	2.0954
28.2111	26.5909	2.4583
28.2394	19.5455	2.1076
28.2677	23.4091	2.3066
28.2959	22.2727	2.2499
28.3242	20.9091	2.1799
28.3525	18.6364	2.0580
28.3807	24.3182	2.3509
28.4090	18.8636	2.0706
28.4373	22.2727	2.2499
28.4655	19.3182	2.0954
28.4938	25.0000	2.3837
28.5221	27.5000	2.5000
28.5503	21.8182	2.2268
28.5786	22.0455	2.2384
28.6069	19.3182	2.0954
28.6351	22.9545	2.2841
28.6634	22.0455	2.2384
28.6917	19.5455	2.1076
28.7199	20.6818	2.1680
28.7482	18.6364	2.0580
28.7765	20.4545	2.1561
28.8047	22.5000	2.2613
28.8330	20.6818	2.1680
28.8613	21.8182	2.2268
28.8895	20.9091	2.1799
28.9178	22.5000	2.2613
28.9461	22.2727	2.2499
28.9743	21.8182	2.2268
29.0026	18.4091	2.0455
29.0308	21.1364	2.1917
29.0591	19.3182	2.0954
29.0874	20.4545	2.1561
29.1156	18.1818	2.0328
29.1439	22.0455	2.2384
29.1722	19.7727	2.1199
29.2004	20.2273	2.1441
29.2287	20.6818	2.1680
29.2570	14.5455	1.8182
29.2852	19.5455	2.1076
29.3135	16.5909	1.9418
29.3418	19.7727	2.1199
29.3700	21.3636	2.2035
29.3983	18.8636	2.0706
29.4266	17.0455	1.9682
29.4548	23.1818	2.2953
29.4831	24.3182	2.3509
29.5114	20.9091	2.1799
29.5396	17.5000	1.9943
29.5679	21.8182	2.2268
29.5962	21.5909	2.2152
29.6244	16.8182	1.9551
29.6527	21.8182	2.2268
29.6810	19.0909	2.0830
29.7092	17.5000	1.9943
29.7375	16.8182	1.9551
29.7658	20.2273	2.1441
29.7940	23.4091	2.3066
29.8223	19.0909	2.0830
29.8505	22.5000	2.2613
29.8788	24.3182	2.3509
29.9071	20.6818	2.1680
29.9353	19.3182	2.0954
29.9636	18.6364	2.0580
29.9919	22.9545	2.2841
30.0201	22.5000	2.2613
30.0484	15.9091	1.9015
30.0767	20.9091	2.1799
30.1049	19.0909	2.0830
30.1332	19.7826	2.0738
30.1615	16.9565	1.9199
30.1897	20.2174	2.0964
30.2180	18.0435	1.9805
30.2463	20.0000	2.0851
30.2745	19.3478	2.0509
30.3028	19.5652	2.0624
30.3311	17.3913	1.9444
30.3593	19.3478	2.0509
30.3876	18.9130	2.0277
30.4159	16.7391	1.9076
30.4441	18.0435	1.9805
30.4724	19.1304	2.0393
30.5007	16.7391	1.9076
30.5289	19.3478	2.0509
30.5572	19.1304	2.0393
30.5855	24.1304	2.2904
30.6137	18.4783	2.0042
30.6420	20.8696	2.1300
30.6702	18.2609	1.9924
30.6985	18.6957	2.0160
30.7268	19.3478	2.0509
30.7550	17.8261	1.9686
30.7833	18.0435	1.9805
30.8116	21.3043	2.1521
30.8398	16.5217	1.8952
30.8681	22.3913	2.2063
30.8964	19.3478	2.0509
30.9246	20.8696	2.1300
30.9529	21.9565	2.1848
30.9812	18.0435	1.9805
31.0094	22.1739	2.1955
31.0377	20.8696	2.1300
31.0660	15.8696	1.8574
31.0942	19.7826	2.0738
31.1225	20.2174	2.0964
31.1508	16.3043	1.8827
31.1790	19.5652	2.0624
31.2073	22.3913	2.2063
31.2356	17.1739	1.9322
31.2638	16.3043	1.8827
31.2921	18.2609	1.9924
31.3204	17.1739	1.9322
31.3486	16.9565	1.9199
31.3769	20.6522	2.1189
31.4052	15.4348	1.8318
31.4334	20.6522	2.1189
31.4617	15.6522	1.8446
31.4900	20.6522	2.1189
31.5182	15.8696	1.8574
31.5465	15.4348	1.8318
31.5747	17.8261	1.9686
31.6030	20.6522	2.1189
31.6313	18.2609	1.9924
31.6595	16.0870	1.8701
31.6878	24.1304	2.2904
31.7161	19.7826	2.0738
31.7443	18.6957	2.0160
31.7726	17.6087	1.9565
31.8009	16.5217	1.8952
31.8291	19.3478	2.0509
31.8574	18.9130	2.0277
31.8857	16.7391	1.9076
31.9139	19.3478	2.0509
31.9422	17.6087	1.9565
31.9705	19.3478	2.0509
31.9987	17.1739	1.9322
32.0270	19.5652	2.0624
32.0553	17.6087	1.9565
32.0835	18.4783	2.0042
32.1118	16.5217	1.8952
32.1401	19.5652	2.0624
32.1683	15.4348	1.8318
32.1966	21.0870	2.1411
32.2249	15.6522	1.8446
32.2531	16.5217	1.8952
32.2814	16.9565	1.9199
32.3097	19.3478	2.0509
32.3379	16.9565	1.9199
32.3662	16.9565	1.9199
32.3944	16.3043	1.8827
32.4227	15.6522	1.8446
32.4510	18.4783	2.0042
32.4792	17.6087	1.9565
32.5075	15.6522	1.8446
32.5358	18.0435	1.9805
32.5640	17.3913	1.9444
32.5923	21.3043	2.1521
32.6206	19.5652	2.0624
32.6488	17.8261	1.9686
32.6771	14.3478	1.7661
32.7054	15.6522	1.8446
32.7336	19.7826	2.0738
32.7619	17.1739	1.9322
32.7902	13.9130	1.7391
32.8184	15.8696	1.8574
32.8467	19.3478	2.0509
32.8750	17.6087	1.9565
32.9032	19.1304	2.0393
32.9315	16.5217	1.8952
32.9598	15.2174	1.8188
32.9880	16.7391	1.9076
33.0163	16.0870	1.8701
33.0446	14.5652	1.7794
33.0728	17.6087	1.9565
33.1011	18.9130	2.0277
33.1294	16.7391	1.9076
33.1576	13.4783	1.7117
33.1859	15.2174	1.8188
33.2142	13.4783	1.7117
33.2424	16.7391	1.9076
33.2707	16.5217	1.8952
33.2989	18.0435	1.9805
33.3272	19.3478	2.0509
33.3555	13.9130	1.7391
33.3837	17.1739	1.9322
33.4120	18.2609	1.9924
33.4403	17.6087	1.9565
33.4685	19.1304	2.0393
33.4968	13.9130	1.7391
33.5251	17.6087	1.9565
33.5533	17.8261	1.9686
33.5816	14.5652	1.7794
33.6099	20.0000	2.0851
33.6381	21.0870	2.1411
33.6664	15.6522	1.8446
33.6947	18.4783	2.0042
33.7229	18.0435	1.9805
33.7512	10.2174	1.4904
33.7795	15.2174	1.8188
33.8077	16.9565	1.9199
33.8360	16.9565	1.9199
33.8643	15.6000	1.7664
33.8925	14.2000	1.6852
33.9208	16.4000	1.8111
33.9491	14.8000	1.7205
33.9773	16.6000	1.8221
34.0056	15.2000	1.7436
34.0339	15.2000	1.7436
34.0621	14.0000	1.6733
34.0904	14.4000	1.6971
34.1186	13.2000	1.6248
34.1469	17.0000	1.8439
34.1752	12.4000	1.5748
34.2034	13.8000	1.6613
34.2317	12.8000	1.6000
34.2600	17.0000	1.8439
34.2882	14.0000	1.6733
34.3165	14.2000	1.6852
34.3448	14.2000	1.6852
34.3730	15.0000	1.7321
34.4013	15.4000	1.7550
34.4296	15.2000	1.7436
34.4578	15.8000	1.7776
34.4861	17.8000	1.8868
34.5144	13.4000	1.6371
34.5426	15.8000	1.7776
34.5709	16.5385	1.7834
34.5992	17.5000	1.8345
34.6274	15.5769	1.7308
34.6557	16.3462	1.7730
34.6840	10.9615	1.4519
34.7122	13.2692	1.5974
34.7405	14.6154	1.6765
34.7688	12.6923	1.5623
34.7970	16.3462	1.7730
34.8253	14.8077	1.6875
34.8536	10.5769	1.4262
34.8818	13.4615	1.6090
34.9101	14.2308	1.6543
34.9383	14.6154	1.6765
34.9666	17.5000	1.8345
34.9949	15.9615	1.7520
35.0231	16.3462	1.7730
35.0514	13.4615	1.6090
35.0797	15.0000	1.6984
35.1079	14.8077	1.6875
35.1362	18.4615	1.8842
35.1645	14.4231	1.6654
35.1927	13.6538	1.6204
35.2210	13.6538	1.6204
35.2493	15.1923	1.7093
35.2775	12.6923	1.5623
35.3058	16.1538	1.7625
35.3341	14.0385	1.6431
35.3623	11.3462	1.4771
35.3906	18.2692	1.8744
35.4189	13.4615	1.6090
35.4471	16.3462	1.7730
35.4754	13.8462	1.6318
35.5037	18.2692	1.8744
35.5319	10.7692	1.4391
35.5602	11.9231	1.5142
35.5885	12.6923	1.5623
35.6167	17.6923	1.8446
35.6450	13.4615	1.6090
35.6733	14.2308	1.6543
35.7015	16.5385	1.7834
35.7298	13.4615	1.6090
35.7581	13.6538	1.6204
35.7863	14.6154	1.6765
35.8146	15.0000	1.6984
35.8428	12.3077	1.5385
35.8711	14.2308	1.6543
35.8994	10.9615	1.4519
35.9276	13.2692	1.5974
35.9559	13.2692	1.5974
35.9842	15.0000	1.6984
36.0124	12.3077	1.5385
36.0407	16.1538	1.7625
36.0690	13.4615	1.6090
36.0972	13.4615	1.6090
36.1255	12.3077	1.5385
36.1538	13.6538	1.6204
36.1820	12.1154	1.5264
36.2103	11.7308	1.5020
36.2386	11.7308	1.5020
36.2668	12.6923	1.5623
36.2951	15.1923	1.7093
36.3234	18.8462	1.9037
36.3516	14.6154	1.6765
36.3799	12.3077	1.5385
36.4082	13.2692	1.5974
36.4364	16.1538	1.7625
36.4647	16.1538	1.7625
36.4930	13.8462	1.6318
36.5212	16.9231	1.8040
36.5495	13.8462	1.6318
36.5778	15.3846	1.7201
36.6060	15.1923	1.7093
36.6343	13.8462	1.6318
36.6625	12.5000	1.5504
36.6908	14.8077	1.6875
36.7191	14.0385	1.6431
36.7473	14.8077	1.6875
36.7756	15.1923	1.7093
36.8039	13.2692	1.5974
36.8321	15.9615	1.7520
36.8604	15.0000	1.6984
36.8887	14.2308	1.6543
36.9169	16.5385	1.7834
36.9452	13.6538	1.6204
36.9735	13.8462	1.6318
37.0017	20.1923	1.9706
37.0300	14.8077	1.6875
37.0583	15.3846	1.7201
37.0865	14.6154	1.6765
37.1148	12.6923	1.5623
37.1431	14.8077	1.6875
37.1713	15.0000	1.6984
37.1996	14.6154	1.6765
37.2279	11.7308	1.5020
37.2561	15.1923	1.7093
37.2844	14.6154	1.6765
37.3127	16.1538	1.7625
37.3409	14.8077	1.6875
37.3692	11.7308	1.5020
37.3975	14.6154	1.6765
37.4257	15.0000	1.6984
37.4540	11.5385	1.4896
37.4823	15.7692	1.7414
37.5105	16.9231	1.8040
37.5388	16.3462	1.7730
37.5670	13.4615	1.6090
37.5953	13.2692	1.5974
37.6236	13.4615	1.6090
37.6518	12.6923	1.5623
37.6801	14.4231	1.6654
37.7084	15.3846	1.7201
37.7366	17.5000	1.8345
37.7649	13.4615	1.6090
37.7932	15.1923	1.7093
37.8214	13.6538	1.6204
37.8497	12.5000	1.5504
37.8780	17.1154	1.8142
37.9062	13.6538	1.6204
37.9345	15.7692	1.7414
37.9628	14.4231	1.6654
37.9910	15.0000	1.6984
38.0193	14.2308	1.6543
38.0476	18.6538	1.8940
38.0758	17.5000	1.8345
38.1041	17.8846	1.8545
38.1324	17.8846	1.8545
38.1606	17.6923	1.8446
38.1889	14.6154	1.6765
38.2172	17.3077	1.8244
38.2454	17.4074	1.7954
38.2737	16.2963	1.7372
38.3020	18.3333	1.8426
38.3302	20.9259	1.9685
38.3585	14.6296	1.6460
38.3867	20.9259	1.9685
38.4150	17.7778	1.8144
38.4433	19.8148	1.9156
38.4715	21.8519	2.0116
38.4998	22.2222	2.0286
38.5281	23.8889	2.1033
38.5563	16.8519	1.7666
38.5846	21.8519	2.0116
38.6129	19.2593	1.8885
38.6411	20.7407	1.9598
38.6694	23.3333	2.0787
38.6977	25.0000	2.1517
38.7259	26.6667	2.2222
38.7542	27.9630	2.2756
38.7825	29.6296	2.3424
38.8107	29.8148	2.3497
38.8390	27.7778	2.2680
38.8673	36.6667	2.6058
38.8955	34.6296	2.5324
38.9238	37.5926	2.6385
38.9521	42.9630	2.8207
38.9803	53.3333	3.1427
39.0086	57.2222	3.2553
39.0369	52.0370	3.1043
39.0651	57.7778	3.2710
39.0934	68.1481	3.5525
39.1217	76.8519	3.7725
39.1499	81.6667	3.8889
39.1782	95.9259	4.2147
39.2064	103.5185	4.3784
39.2347	122.7778	4.7683
39.2630	132.7778	4.9587
39.2912	156.6667	5.3863
39.3195	178.7037	5.7527
39.3478	220.3704	6.3882
39.3760	237.7778	6.6357
39.4043	293.1481	7.3680
39.4326	294.6296	7.3865
39.4608	300.1852	7.4559
39.4891	319.8148	7.6958
39.5174	316.2963	7.6533
39.5456	307.5926	7.5473
39.5739	296.1111	7.4051
39.6022	265.9259	7.0175
39.6304	265.3704	7.0102
39.6587	227.2222	6.4868
39.6870	213.8889	6.2936
39.7152	189.4444	5.9230
39.7435	165.9259	5.5432
39.7718	143.8889	5.1620
39.8000	127.7778	4.8644
39.8283	117.2222	4.6592
39.8566	101.4815	4.3351
39.8848	81.6667	3.8889
39.9131	74.8148	3.7222
39.9414	71.8519	3.6477
39.9696	56.2963	3.2288
39.9979	51.1111	3.0765
40.0262	46.2963	2.9280
40.0544	44.6296	2.8748
40.0827	42.4074	2.8024
40.1109	36.4815	2.5992
40.1392	31.2963	2.4074
40.1675	30.9259	2.3931
40.1957	30.3704	2.3715
40.2240	26.8519	2.2299
40.2523	26.2963	2.2067
40.2805	28.8889	2.3130
40.3088	26.1111	2.1990
40.3371	22.4074	2.0370
40.3653	25.9259	2.1911
40.3936	19.8148	1.9156
40.4219	22.4074	2.0370
40.4501	23.5185	2.0869
40.4784	20.9259	1.9685
40.5067	20.3704	1.9422
40.5349	19.0741	1.8794
40.5632	20.1852	1.9334
40.5915	16.6667	1.7568
40.6197	20.0000	1.9245
40.6480	19.8148	1.9156
40.6763	18.3333	1.8426
40.7045	19.2593	1.8885
40.7328	17.4074	1.7954
40.7611	17.7778	1.8144
40.7893	16.2963	1.7372
40.8176	16.2963	1.7372
40.8459	17.2222	1.7859
40.8741	12.2222	1.5045
40.9024	14.6296	1.6460
40.9306	15.9259	1.7173
40.9589	18.5185	1.8519
40.9872	18.7037	1.8611
41.0154	14.2593	1.6250
41.0437	13.7037	1.5930
41.0720	14.6296	1.6460
41.1002	18.7037	1.8611
41.1285	17.2222	1.7859
41.1568	16.6667	1.7568
41.1850	13.5185	1.5822
41.2133	14.8148	1.6563
41.2416	15.3704	1.6871
41.2698	16.4815	1.7470
41.2981	15.7407	1.7073
41.3264	13.8889	1.6038
41.3546	13.8889	1.6038
41.3829	15.1852	1.6769
41.4112	16.8519	1.7666
41.4394	14.0741	1.6144
41.4677	14.6296	1.6460
41.4960	13.7037	1.5930
41.5242	17.4074	1.7954
41.5525	12.2222	1.5045
41.5808	13.3333	1.5713
41.6090	13.5185	1.5822
41.6373	12.9630	1.5494
41.6656	12.4074	1.5158
41.6938	14.2593	1.6250
41.7221	15.1852	1.6769
41.7504	14.2593	1.6250
41.7786	13.3333	1.5713
41.8069	14.2593	1.6250
41.8351	12.0370	1.4930
41.8634	11.6667	1.4699
41.8917	12.0370	1.4930
41.9199	13.5185	1.5822
41.9482	12.7778	1.5383
41.9765	15.9259	1.7173
42.0047	11.8519	1.4815
42.0330	15.7407	1.7073
42.0613	13.3333	1.5713
42.0895	11.6667	1.4699
42.1178	16.1111	1.7273
42.1461	12.4074	1.5158
42.1743	13.8889	1.6038
42.2026	14.0741	1.6144
42.2309	12.2222	1.5045
42.2591	14.0741	1.6144
42.2874	12.2222	1.5045
42.3157	13.5185	1.5822
42.3439	12.9630	1.5494
42.3722	13.7037	1.5930
42.4005	14.2593	1.6250
42.4287	11.6667	1.4699
42.4570	14.6296	1.6460
42.4853	15.0000	1.6667
42.5135	13.1481	1.5604
42.5418	11.6667	1.4699
42.5701	11.8519	1.4815
42.5983	12.6786	1.5047
42.6266	11.4286	1.4286
42.6548	10.1786	1.3482
42.6831	9.1071	1.2753
42.7114	10.8929	1.3947
42.7396	14.1071	1.5872
42.7679	13.0357	1.5257
42.7962	12.3214	1.4833
42.8244	13.2143	1.5361
42.8527	10.1786	1.3482
42.8810	13.2143	1.5361
42.9092	9.1071	1.2753
42.9375	12.5000	1.4940
42.9658	12.8571	1.5152
42.9940	14.6429	1.6170
43.0223	12.5000	1.4940
43.0506	11.9643	1.4617
43.0788	11.4286	1.4286
43.1071	10.5357	1.3716
43.1354	13.0357	1.5257
43.1636	9.2857	1.2877
43.1919	11.4286	1.4286
43.2202	13.2143	1.5361
43.2484	13.2143	1.5361
43.2767	11.4286	1.4286
43.3050	14.1071	1.5872
43.3332	11.6071	1.4397
43.3615	12.3214	1.4833
43.3898	13.2143	1.5361
43.4180	13.5000	1.5000
43.4463	9.6667	1.2693
43.4745	13.8333	1.5184
43.5028	11.3333	1.3744
43.5311	12.0000	1.4142
43.5593	11.1667	1.3642
43.5876	11.5000	1.3844
43.6159	11.0000	1.3540
43.6441	10.6667	1.3333
43.6724	9.5000	1.2583
43.7007	10.3333	1.3123
43.7289	8.1667	1.1667
43.7572	10.0000	1.2910
43.7855	10.5000	1.3229
43.8137	9.8333	1.2802
43.8420	11.1667	1.3642
43.8703	13.5000	1.5000
43.8985	10.3333	1.3123
43.9268	9.5000	1.2583
43.9551	14.6667	1.5635
43.9833	10.1667	1.3017
44.0116	9.5000	1.2583
44.0399	11.5000	1.3844
44.0681	10.0000	1.2910
44.0964	11.3333	1.3744
44.1247	11.8333	1.4044
44.1529	11.6667	1.3944
44.1812	10.5000	1.3229
44.2095	11.0000	1.3540
44.2377	12.6667	1.4530
44.2660	11.1667	1.3642
44.2943	9.1667	1.2360
44.3225	10.0000	1.2910
44.3508	9.8333	1.2802
44.3790	8.3333	1.1785
44.4073	7.3333	1.1055
44.4356	9.6667	1.2693
44.4638	14.0000	1.5275
44.4921	11.1667	1.3642
44.5204	12.1667	1.4240
44.5486	10.0000	1.2910
44.5769	13.1667	1.4814
44.6052	10.8333	1.3437
44.6334	11.8333	1.4044
44.6617	8.6667	1.2019
44.6900	12.0000	1.4142
44.7182	7.1667	1.0929
44.7465	10.1667	1.3017
44.7748	6.8333	1.0672
44.8030	10.0000	1.2910
44.8313	10.1667	1.3017
44.8596	10.8333	1.3437
44.8878	11.3333	1.3744
44.9161	8.8333	1.2134
44.9444	11.1667	1.3642
44.9726	13.3333	1.4907
45.0009	11.1667	1.3642
45.0292	11.6667	1.3944
45.0574	9.8333	1.2802
45.0857	9.5000	1.2583
45.1140	9.5000	1.2583
45.1422	10.3333	1.3123
45.1705	8.1667	1.1667
45.1987	9.1667	1.2360
45.2270	10.1667	1.3017
45.2553	8.1667	1.1667
45.2835	10.8333	1.3437
45.3118	12.5000	1.4434
45.3401	7.8333	1.1426
45.3683	12.8333	1.4625
45.3966	10.5000	1.3229
45.4249	10.3333	1.3123
45.4531	10.3333	1.3123
45.4814	10.0000	1.2910
45.5097	9.1667	1.2360
45.5379	9.3333	1.2472
45.5662	8.3333	1.1785
45.5945	10.6667	1.3333
45.6227	10.0000	1.2910
45.6510	12.8333	1.4625
45.6793	10.5000	1.3229
45.7075	10.0000	1.2910
45.7358	11.6667	1.3944
45.7641	7.8333	1.1426
45.7923	9.1667	1.2360
45.8206	8.8333	1.2134
45.8489	8.8333	1.2134
45.8771	12.6667	1.4530
45.9054	8.3333	1.1785
45.9337	8.1667	1.1667
45.9619	13.0000	1.4720
45.9902	12.1667	1.4240
46.0184	9.3333	1.2472
46.0467	10.1667	1.3017
46.0750	11.3333	1.3744
46.1032	13.0000	1.4720
46.1315	11.3333	1.3744
46.1598	9.6667	1.2693
46.1880	8.8333	1.2134
46.2163	8.5000	1.1902
46.2446	8.3333	1.1785
46.2728	8.1667	1.1667
46.3011	7.5000	1.1180
46.3294	9.5000	1.2583
46.3576	9.0000	1.2247
46.3859	9.5000	1.2583
46.4142	12.0000	1.4142
46.4424	10.5000	1.3229
46.4707	11.3333	1.3744
46.4990	13.0000	1.4720
46.5272	11.5000	1.3844
46.5555	10.0000	1.2910
46.5838	10.3226	1.2903
46.6120	10.3226	1.2903
46.6403	11.1290	1.3398
46.6686	11.4516	1.3591
46.6968	7.5806	1.1058
46.7251	9.6774	1.2493
46.7534	10.9677	1.3300
46.7816	11.7742	1.3781
46.8099	10.0000	1.2700
46.8382	9.6774	1.2493
46.8664	8.7097	1.1852
46.8947	9.1935	1.2177
46.9229	7.9032	1.1290
46.9512	9.0323	1.2070
46.9795	10.1613	1.2802
47.0077	8.2258	1.1518
47.0360	7.7419	1.1175
47.0643	10.6452	1.3103
47.0925	6.2903	1.0073
47.1208	9.0323	1.2070
47.1491	10.4839	1.3004
47.1773	7.2581	1.0820
47.2056	10.0000	1.2700
47.2339	8.7097	1.1852
47.2621	7.5806	1.1058
47.2904	10.0000	1.2700
47.3187	8.8710	1.1962
47.3469	10.4839	1.3004
47.3752	9.1935	1.2177
47.4035	8.0645	1.1405
47.4317	9.8387	1.2597
47.4600	7.3438	1.0712
47.4883	10.4688	1.2790
47.5165	10.3125	1.2694
47.5448	8.7500	1.1693
47.5731	9.8438	1.2402
47.6013	9.6875	1.2303
47.6296	9.0625	1.1900
47.6579	8.1250	1.1267
47.6861	10.7813	1.2979
47.7144	8.9063	1.1797
47.7426	7.6563	1.0938
47.7709	10.0000	1.2500
47.7992	10.0000	1.2500
47.8274	8.7500	1.1693
47.8557	7.3438	1.0712
47.8840	10.1563	1.2597
47.9122	9.5313	1.2204
47.9405	10.9375	1.3073
47.9688	10.4688	1.2790
47.9970	7.5000	1.0825
48.0253	8.7500	1.1693
48.0536	9.6875	1.2303
48.0818	7.8125	1.1049
48.1101	5.7813	0.9504
48.1384	7.3438	1.0712
48.1666	8.2813	1.1375
48.1949	7.9688	1.1158
48.2232	10.1563	1.2597
48.2514	10.7813	1.2979
48.2797	8.2813	1.1375
48.3080	8.1250	1.1267
48.3362	8.5938	1.1588
48.3645	8.7500	1.1693
48.3928	9.6875	1.2303
48.4210	11.5625	1.3441
48.4493	8.7500	1.1693
48.4776	9.6875	1.2303
48.5058	10.9375	1.3073
48.5341	9.2188	1.2002
48.5624	8.9063	1.1797
48.5906	8.4375	1.1482
48.6189	7.1875	1.0597
48.6471	11.2500	1.3258
48.6754	7.5000	1.0825
48.7037	8.5938	1.1588
48.7319	8.2813	1.1375
48.7602	8.5938	1.1588
48.7885	10.6250	1.2885
48.8167	7.1875	1.0597
48.8450	8.9063	1.1797
48.8733	7.6563	1.0938
48.9015	7.1875	1.0597
48.9298	9.2188	1.2002
48.9581	8.9063	1.1797
48.9863	7.1875	1.0597
49.0146	8.7500	1.1693
49.0429	7.8125	1.1049
49.0711	9.2188	1.2002
49.0994	7.1875	1.0597
49.1277	8.7500	1.1693
49.1559	7.5000	1.0825
49.1842	9.3750	1.2103
49.2125	8.9063	1.1797
49.2407	9.0625	1.1900
49.2690	10.6250	1.2885
49.2973	7.0313	1.0482
49.3255	11.0938	1.3166
49.3538	10.4688	1.2790
49.3821	10.3125	1.2694
49.4103	7.3438	1.0712
49.4386	7.8125	1.1049
49.4668	8.9063	1.1797
49.4951	10.3125	1.2694
49.5234	8.4375	1.1482
49.5516	10.6250	1.2885
49.5799	7.8125	1.1049
49.6082	10.1563	1.2597
49.6364	9.8438	1.2402
49.6647	7.5000	1.0825
49.6930	8.5938	1.1588
49.7212	8.1250	1.1267
49.7495	6.8750	1.0364
49.7778	7.5000	1.0825
49.8060	7.8125	1.1049
49.8343	10.6250	1.2885
49.8626	7.1875	1.0597
49.8908	8.2813	1.1375
49.9191	7.9688	1.1158
49.9474	10.1563	1.2597
49.9756	7.9688	1.1158
50.0039	9.8438	1.2402
50.0322	8.5938	1.1588
50.0604	8.4375	1.1482
50.0887	11.0938	1.3166
50.1170	9.3750	1.2103
50.1452	7.5000	1.0825
50.1735	9.2188	1.2002
50.2018	8.9063	1.1797
50.2300	11.0938	1.3166
50.2583	7.1875	1.0597
50.2865	8.9063	1.1797
50.3148	9.2188	1.2002
50.3431	9.5313	1.2204
50.3713	10.0000	1.2500
50.3996	5.7813	0.9504
50.4279	9.0625	1.1900
50.4561	9.2188	1.2002
50.4844	6.0938	0.9758
50.5127	8.4375	1.1482
50.5409	8.7500	1.1693
50.5692	9.3750	1.2103
50.5975	9.2188	1.2002
50.6257	7.3438	1.0712
50.6540	8.1250	1.1267
50.6823	8.2813	1.1375
50.7105	8.4375	1.1482
50.7388	8.2813	1.1375
50.7671	9.5313	1.2204
50.7953	9.8438	1.2402
50.8236	9.0625	1.1900
50.8519	7.8125	1.1049
50.8801	7.0313	1.0482
50.9084	8.7500	1.1693
50.9367	8.2813	1.1375
50.9649	8.5938	1.1588
50.9932	8.1250	1.1267
51.0215	7.6563	1.0938
51.0497	9.8438	1.2402
51.0780	9.2188	1.2002
51.1063	8.4375	1.1482
51.1345	9.3750	1.2103
51.1628	6.2500	0.9882
51.1910	7.6563	1.0938
51.2193	6.7188	1.0246
51.2476	8.5938	1.1588
51.2758	9.2188	1.2002
51.3041	7.1875	1.0597
51.3324	8.4375	1.1482
51.3606	9.5313	1.2204
51.3889	9.2188	1.2002
51.4172	8.9063	1.1797
51.4454	9.8438	1.2402
51.4737	9.1176	1.1579
51.5020	7.7941	1.0706
51.5302	7.3529	1.0399
51.5585	7.7941	1.0706
51.5868	8.6765	1.1296
51.6150	8.0882	1.0906
51.6433	5.2941	0.8824
51.6716	7.6471	1.0605
51.6998	8.0882	1.0906
51.7281	6.9118	1.0082
51.7564	11.3235	1.2904
51.7846	6.9118	1.0082
51.8129	7.3529	1.0399
51.8412	9.7059	1.1947
51.8694	10.0000	1.2127
51.8977	8.5294	1.1200
51.9260	9.4118	1.1765
51.9542	8.2353	1.1005
51.9825	10.2941	1.2304
52.0107	10.2941	1.2304
52.0390	7.6471	1.0605
52.0673	8.6765	1.1296
52.0955	10.7353	1.2565
52.1238	9.5588	1.1856
52.1521	6.6176	0.9865
52.1803	7.2059	1.0294
52.2086	8.5294	1.1200
52.2369	9.1176	1.1579
52.2651	8.5294	1.1200
52.2934	9.2647	1.1672
52.3217	7.6471	1.0605
52.3499	9.1176	1.1579
52.3782	10.0000	1.2127
52.4065	8.8235	1.1391
52.4347	9.1176	1.1579
52.4630	9.7059	1.1947
52.4913	6.7647	0.9974
52.5195	7.9412	1.0807
52.5478	9.5588	1.1856
52.5761	8.5294	1.1200
52.6043	11.1765	1.2820
52.6326	10.8824	1.2650
52.6609	7.3529	1.0399
52.6891	10.1471	1.2216
52.7174	6.7647	0.9974
52.7457	8.5294	1.1200
52.7739	8.8235	1.1391
52.8022	9.1176	1.1579
52.8305	7.6471	1.0605
52.8587	7.5000	1.0502
52.8870	8.5294	1.1200
52.9152	6.9118	1.0082
52.9435	7.7941	1.0706
52.9718	4.8529	0.8448
53.0000	8.9706	1.1486
53.0283	7.6471	1.0605
53.0566	8.2353	1.1005
53.0848	8.8235	1.1391
53.1131	8.5294	1.1200
53.1414	9.8529	1.2037
53.1696	8.3824	1.1103
53.1979	7.3529	1.0399
53.2262	7.6471	1.0605
53.2544	7.3529	1.0399
53.2827	6.9118	1.0082
53.3110	6.4706	0.9755
53.3392	7.6471	1.0605
53.3675	8.5294	1.1200
53.3958	7.0588	1.0189
53.4240	8.8235	1.1391
53.4523	9.1176	1.1579
53.4806	8.9706	1.1486
53.5088	8.3824	1.1103
53.5371	7.7941	1.0706
53.5654	9.5588	1.1856
53.5936	7.0588	1.0189
53.6219	8.0882	1.0906
53.6502	9.8529	1.2037
53.6784	7.9412	1.0807
53.7067	9.1176	1.1579
53.7349	8.3824	1.1103
53.7632	9.1176	1.1579
53.7915	9.2647	1.1672
53.8197	6.6176	0.9865
53.8480	7.9412	1.0807
53.8763	6.9118	1.0082
53.9045	7.5000	1.0502
53.9328	6.9118	1.0082
53.9611	8.2353	1.1005
53.9893	9.2647	1.1672
54.0176	7.5000	1.0502
54.0459	10.4412	1.2391
54.0741	8.9706	1.1486
54.1024	7.7941	1.0706
54.1307	8.5294	1.1200
54.1589	8.2353	1.1005
54.1872	7.5000	1.0502
54.2155	7.6471	1.0605
54.2437	7.2059	1.0294
54.2720	7.7941	1.0706
54.3003	8.5294	1.1200
54.3285	6.6176	0.9865
54.3568	9.7059	1.1947
54.3851	10.1471	1.2216
54.4133	7.7941	1.0706
54.4416	6.3235	0.9643
54.4699	8.3824	1.1103
54.4981	6.7647	0.9974
54.5264	6.8571	0.9897
54.5546	9.7143	1.1780
54.5829	7.2857	1.0202
54.6112	9.8571	1.1867
54.6394	10.8571	1.2454
54.6677	7.2857	1.0202
54.6960	9.4286	1.1606
54.7242	8.8571	1.1249
54.7525	6.4286	0.9583
54.7808	10.0000	1.1952
54.8090	9.2857	1.1518
54.8373	7.5714	1.0400
54.8656	8.0000	1.0690
54.8938	8.2857	1.0880
54.9221	9.7143	1.1780
54.9504	7.8571	1.0595
54.9786	7.8571	1.0595
55.0069	9.5714	1.1693
55.0352	8.4286	1.0973
55.0634	7.4286	1.0302
55.0917	7.8571	1.0595
55.1200	9.5714	1.1693
55.1482	8.1429	1.0785
55.1765	8.5714	1.1066
55.2048	8.1429	1.0785
55.2330	8.8571	1.1249
55.2613	8.8571	1.1249
55.2896	8.0000	1.0690
55.3178	9.8571	1.1867
55.3461	7.0000	1.0000
55.3744	9.5714	1.1693
55.4026	8.8571	1.1249
55.4309	8.8571	1.1249
55.4591	8.1429	1.0785
55.4874	8.1429	1.0785
55.5157	8.8889	1.1111
55.5439	8.4722	1.0848
55.5722	8.6111	1.0936
55.6005	8.8889	1.1111
55.6287	8.3333	1.0758
55.6570	8.3333	1.0758
55.6853	8.8889	1.1111
55.7135	9.1667	1.1283
55.7418	8.4722	1.0848
55.7701	7.3611	1.0111
55.7983	9.1667	1.1283
55.8266	9.5833	1.1537
55.8549	9.8611	1.1703
55.8831	12.3611	1.3103
55.9114	10.2778	1.1948
55.9397	8.8889	1.1111
55.9679	8.3333	1.0758
55.9962	11.1111	1.2423
56.0245	10.0000	1.1785
56.0527	10.6944	1.2187
56.0810	10.4167	1.2028
56.1093	10.1389	1.1867
56.1375	12.0833	1.2955
56.1658	10.2778	1.1948
56.1941	9.0278	1.1198
56.2223	12.7778	1.3322
56.2506	13.1944	1.3537
56.2788	13.8889	1.3889
56.3071	12.7778	1.3322
56.3354	12.2222	1.3029
56.3636	15.2778	1.4567
56.3919	14.8611	1.4367
56.4202	15.6944	1.4764
56.4484	16.1111	1.4959
56.4767	16.1111	1.4959
56.5050	20.0000	1.6667
56.5332	18.7500	1.6137
56.5615	22.3611	1.7623
56.5898	22.0833	1.7513
56.6180	22.5000	1.7678
56.6463	22.6389	1.7732
56.6746	28.4722	1.9886
56.7028	29.8611	2.0365
56.7311	30.5556	2.0601
56.7594	30.5556	2.0601
56.7876	39.0278	2.3282
56.8159	37.5000	2.2822
56.8442	40.2778	2.3652
56.8724	43.6111	2.4611
56.9007	48.0556	2.5835
56.9290	55.4167	2.7743
56.9572	52.6389	2.7039
56.9855	55.9722	2.7882
57.0138	53.3333	2.7217
57.0420	53.1944	2.7181
57.0703	54.3056	2.7463
57.0986	58.0556	2.8396
57.1268	49.0278	2.6095
57.1551	43.7500	2.4650
57.1833	48.7500	2.6021
57.2116	40.0000	2.3570
57.2399	40.5556	2.3733
57.2681	37.6389	2.2864
57.2964	36.1111	2.2395
57.3247	31.5278	2.0926
57.3529	28.3333	1.9837
57.3812	29.0278	2.0079
57.4095	26.9444	1.9345
57.4377	28.8889	2.0031
57.4660	21.2500	1.7180
57.4943	21.8056	1.7403
57.5225	19.0278	1.6257
57.5508	16.3889	1.5087
57.5791	16.5278	1.5151
57.6073	15.4167	1.4633
57.6356	13.6111	1.3749
57.6639	14.4444	1.4164
57.6921	13.6111	1.3749
57.7204	12.3611	1.3103
57.7487	12.2222	1.3029
57.7769	9.3056	1.1369
57.8052	13.0556	1.3466
57.8335	10.4167	1.2028
57.8617	10.4167	1.2028
57.8900	11.6667	1.2729
57.9183	10.6944	1.2187
57.9465	9.5833	1.1537
57.9748	11.1111	1.2423
58.0030	10.9722	1.2345
58.0313	10.0000	1.1785
58.0596	12.0833	1.2955
58.0878	8.4722	1.0848
58.1161	9.1667	1.1283
58.1444	9.5833	1.1537
58.1726	8.6111	1.0936
58.2009	10.6944	1.2187
58.2292	8.4722	1.0848
58.2574	9.3056	1.1369
58.2857	9.1667	1.1283
58.3140	7.0833	0.9919
58.3422	5.9722	0.9108
58.3705	7.5000	1.0206
58.3988	8.7500	1.1024
58.4270	7.9167	1.0486
58.4553	7.5000	1.0206
58.4836	8.5135	1.0726
58.5118	9.8649	1.1546
58.5401	7.7027	1.0202
58.5684	8.1081	1.0468
58.5966	7.7027	1.0202
58.6249	6.2162	0.9165
58.6532	7.0270	0.9745
58.6814	8.2432	1.0554
58.7097	9.3243	1.1225
58.7380	7.1622	0.9838
58.7662	7.1622	0.9838
58.7945	7.5676	1.0113
58.8227	10.8108	1.2087
58.8510	6.7568	0.9555
58.8793	6.8919	0.9651
58.9075	8.6486	1.0811
58.9358	9.5946	1.1387
58.9641	7.8378	1.0292
58.9923	7.5676	1.0113
59.0206	7.4324	1.0022
59.0489	7.0270	0.9745
59.0771	7.0270	0.9745
59.1054	7.4324	1.0022
59.1337	8.2432	1.0554
59.1619	6.8919	0.9651
59.1902	6.7568	0.9555
59.2185	8.6486	1.0811
59.2467	7.2973	0.9930
59.2750	7.2973	0.9930
59.3033	9.7297	1.1467
59.3315	7.0270	0.9745
59.3598	7.8378	1.0292
59.3881	6.7568	0.9555
59.4163	8.7838	1.0895
59.4446	6.3514	0.9264
59.4729	6.8919	0.9651
59.5011	6.2162	0.9165
59.5294	6.2162	0.9165
59.5577	6.6216	0.9459
59.5859	7.1622	0.9838
59.6142	7.7027	1.0202
59.6425	8.6486	1.0811
59.6707	6.2162	0.9165
59.6990	6.7568	0.9555
59.7272	7.8378	1.0292
59.7555	7.1622	0.9838
59.7838	6.4865	0.9362
59.8120	8.7838	1.0895
59.8403	7.0270	0.9745
59.8686	7.4324	1.0022
59.8968	7.2973	0.9930
59.9251	7.4324	1.0022
59.9534	6.7568	0.9555
59.9816	6.4865	0.9362
60.0099	7.4324	1.0022
60.0382	7.9730	1.0380
60.0664	7.8378	1.0292
60.0947	5.9459	0.8964
60.1230	8.2432	1.0554
60.1512	6.4865	0.9362
60.1795	7.7027	1.0202
60.2078	8.1081	1.0468
60.2360	7.8378	1.0292
60.2643	6.3514	0.9264
60.2926	7.0270	0.9745
60.3208	9.3243	1.1225
60.3491	7.1622	0.9838
60.3774	7.8378	1.0292
60.4056	6.8919	0.9651
60.4339	7.2973	0.9930
60.4622	8.2432	1.0554
60.4904	8.6486	1.0811
60.5187	6.2162	0.9165
60.5469	7.8378	1.0292
60.5752	5.6757	0.8758
60.6035	6.4865	0.9362
60.6317	5.9459	0.8964
60.6600	5.6757	0.8758
60.6883	8.2432	1.0554
60.7165	7.2973	0.9930
60.7448	7.8378	1.0292
60.7731	7.4324	1.0022
60.8013	7.4324	1.0022
60.8296	5.2703	0.8439
60.8579	5.4054	0.8547
60.8861	8.3784	1.0641
60.9144	7.0270	0.9745
60.9427	7.8378	1.0292
60.9709	7.7027	1.0202
60.9992	7.4324	1.0022
61.0275	5.9459	0.8964
61.0557	5.8108	0.8861
61.0840	6.7568	0.9555
61.1123	5.9459	0.8964
61.1405	6.0811	0.9065
61.1688	7.8378	1.0292
61.1971	7.1622	0.9838
61.2253	6.7568	0.9555
61.2536	6.2162	0.9165
61.2819	7.2973	0.9930
61.3101	9.5946	1.1387
61.3384	7.1622	0.9838
61.3667	6.0811	0.9065
61.3949	6.4865	0.9362
61.4232	8.2432	1.0554
61.4514	5.4054	0.8547
61.4797	7.5676	1.0113
61.5080	9.4595	1.1306
61.5362	6.2162	0.9165
61.5645	7.7027	1.0202
61.5928	9.5946	1.1387
61.6210	8.1081	1.0468
61.6493	7.8378	1.0292
61.6776	8.7838	1.0895
61.7058	6.6216	0.9459
61.7341	7.4324	1.0022
61.7624	7.4324	1.0022
61.7906	7.2973	0.9930
61.8189	6.7568	0.9555
61.8472	7.0270	0.9745
61.8754	5.1351	0.8330
61.9037	6.2162	0.9165
61.9320	7.0270	0.9745
61.9602	7.2973	0.9930
61.9885	7.2973	0.9930
62.0168	8.5135	1.0726
62.0450	6.8919	0.9651
62.0733	7.7027	1.0202
62.1016	8.1081	1.0468
62.1298	8.2432	1.0554
62.1581	6.8919	0.9651
62.1864	6.8919	0.9651
62.2146	5.5405	0.8653
62.2429	7.8378	1.0292
62.2711	6.7568	0.9555
62.2994	6.6216	0.9459
62.3277	7.2973	0.9930
62.3559	7.2973	0.9930
62.3842	6.3514	0.9264
62.4125	7.1622	0.9838
62.4407	7.1622	0.9838
62.4690	7.0513	0.9508
62.4973	5.8974	0.8695
62.5255	6.7949	0.9333
62.5538	6.4103	0.9065
62.5821	6.2821	0.8974
62.6103	6.6667	0.9245
62.6386	6.5385	0.9156
62.6669	5.1282	0.8108
62.6951	6.5385	0.9156
62.7234	6.0256	0.8789
62.7517	6.1538	0.8882
62.7799	6.9231	0.9421
62.8082	7.0513	0.9508
62.8365	7.9487	1.0095
62.8647	5.7692	0.8600
62.8930	6.1538	0.8882
62.9213	7.1795	0.9594
62.9495	6.0256	0.8789
62.9778	6.9231	0.9421
63.0061	6.4103	0.9065
63.0343	6.4103	0.9065
63.0626	6.7949	0.9333
63.0908	6.1538	0.8882
63.1191	5.3846	0.8309
63.1474	6.5385	0.9156
63.1756	6.1538	0.8882
63.2039	6.4103	0.9065
63.2322	7.4359	0.9764
63.2604	7.1795	0.9594
63.2887	7.6923	0.9931
63.3170	5.6410	0.8504
63.3452	6.7949	0.9333
63.3735	6.2821	0.8974
63.4018	7.0513	0.9508
63.4300	6.9231	0.9421
63.4583	5.0000	0.8006
63.4866	6.4103	0.9065
63.5148	6.1538	0.8882
63.5431	7.3077	0.9679
63.5714	6.3750	0.8927
63.5996	5.3750	0.8197
63.6279	6.7500	0.9186
63.6562	6.3750	0.8927
63.6844	6.2500	0.8839
63.7127	6.8750	0.9270
63.7410	6.1250	0.8750
63.7692	6.6250	0.9100
63.7975	7.0000	0.9354
63.8258	7.1250	0.9437
63.8540	6.5000	0.9014
63.8823	6.5000	0.9014
63.9106	7.0000	0.9354
63.9388	6.3750	0.8927
63.9671	6.3750	0.8927
63.9953	6.3750	0.8927
64.0236	6.3750	0.8927
64.0519	6.2500	0.8839
64.0801	6.1250	0.8750
64.1084	6.2500	0.8839
64.1367	6.5000	0.9014
64.1649	8.2500	1.0155
64.1932	7.6250	0.9763
64.2215	8.1250	1.0078
64.2497	7.6250	0.9763
64.2780	6.8750	0.9270
64.3063	7.2500	0.9520
64.3345	7.5000	0.9682
64.3628	7.5000	0.9682
64.3911	6.3750	0.8927
64.4193	6.3750	0.8927
64.4476	7.0000	0.9354
64.4759	6.8750	0.9270
64.5041	6.7500	0.9186
64.5324	6.6250	0.9100
64.5607	7.5000	0.9682
64.5889	7.3750	0.9601
64.6172	5.1250	0.8004
64.6455	6.5000	0.9014
64.6737	6.3750	0.8927
64.7020	7.5000	0.9682
64.7303	6.6250	0.9100
64.7585	7.0000	0.9354
64.7868	7.5000	0.9449
64.8150	7.7381	0.9598
64.8433	6.3095	0.8667
64.8716	7.6190	0.9524
64.8998	6.6667	0.8909
64.9281	6.5476	0.8829
64.9564	5.0000	0.7715
64.9846	7.9762	0.9744
65.0129	6.5476	0.8829
65.0412	7.0238	0.9144
65.0694	7.1429	0.9221
65.0977	5.4762	0.8074
65.1260	7.5000	0.9449
65.1542	5.9524	0.8418
65.1825	6.4286	0.8748
65.2108	7.6190	0.9524
65.2390	5.0000	0.7715
65.2673	6.7857	0.8988
65.2956	7.2619	0.9298
65.3238	6.1905	0.8585
65.3521	4.8810	0.7623
65.3804	7.2619	0.9298
65.4086	8.5714	1.0102
65.4369	7.5000	0.9449
65.4652	5.9524	0.8418
65.4934	7.1429	0.9221
65.5217	6.5476	0.8829
65.5500	8.6905	1.0171
65.5782	6.9048	0.9066
65.6065	7.9762	0.9744
65.6348	6.5476	0.8829
65.6630	6.0714	0.8502
65.6913	6.3095	0.8667
65.7195	5.0000	0.7715
65.7478	7.6190	0.9524
65.7761	6.4286	0.8748
65.8043	7.3810	0.9374
65.8326	5.5952	0.8161
65.8609	5.9524	0.8418
65.8891	7.3810	0.9374
65.9174	7.2619	0.9298
65.9457	6.4286	0.8748
65.9739	5.5682	0.7955
66.0022	6.1364	0.8351
66.0305	7.5556	0.9162
66.0587	8.1111	0.9493
66.0870	6.4444	0.8462
66.1153	7.1111	0.8889
66.1435	6.8889	0.8749
66.1718	5.4444	0.7778
66.2001	5.2222	0.7617
66.2283	7.2222	0.8958
66.2566	6.4444	0.8462
66.2849	5.5556	0.7857
66.3131	5.7778	0.8012
66.3414	6.6667	0.8607
66.3697	5.7778	0.8012
66.3979	7.8889	0.9362
66.4262	7.2222	0.8958
66.4545	5.6667	0.7935
66.4827	7.1111	0.8889
66.5110	4.4444	0.7027
66.5392	6.5556	0.8535
66.5675	6.4444	0.8462
66.5958	6.3333	0.8389
66.6240	6.8889	0.8749
66.6523	5.4444	0.7778
66.6806	5.8889	0.8089
66.7088	6.3333	0.8389
66.7371	6.6667	0.8607
66.7654	6.8889	0.8749
66.7936	5.8889	0.8089
66.8219	6.1111	0.8240
66.8502	7.7778	0.9296
66.8784	6.1111	0.8240
66.9067	5.2222	0.7617
66.9350	6.1111	0.8240
66.9632	6.2222	0.8315
66.9915	5.7778	0.8012
67.0198	5.0000	0.7454
67.0480	5.8889	0.8089
67.0763	7.2222	0.8958
67.1046	6.3333	0.8389
67.1328	6.5556	0.8535
67.1611	4.1111	0.6759
67.1894	7.4444	0.9095
67.2176	6.3333	0.8389
67.2459	5.6383	0.7745
67.2742	6.3830	0.8240
67.3024	6.5957	0.8377
67.3307	6.4894	0.8309
67.3589	5.4255	0.7597
67.3872	5.5319	0.7671
67.4155	5.8511	0.7890
67.4437	6.9149	0.8577
67.4720	6.1702	0.8102
67.5003	5.3191	0.7522
67.5285	6.0638	0.8032
67.5568	7.8723	0.9151
67.5851	6.5957	0.8377
67.6133	6.0638	0.8032
67.6416	6.1702	0.8102
67.6699	6.7021	0.8444
67.6981	5.7447	0.7818
67.7264	7.0213	0.8643
67.7547	6.2766	0.8171
67.7829	6.5957	0.8377
67.8112	7.0213	0.8643
67.8395	5.4255	0.7597
67.8677	4.8936	0.7215
67.8960	5.8511	0.7890
67.9243	7.1277	0.8708
67.9525	5.9574	0.7961
67.9808	5.7447	0.7818
68.0091	6.1702	0.8102
68.0373	6.7021	0.8444
68.0656	6.8085	0.8511
68.0939	7.1277	0.8708
68.1221	5.8511	0.7890
68.1504	5.9574	0.7961
68.1787	5.8511	0.7890
68.2069	7.5532	0.8964
68.2352	7.2340	0.8773
68.2634	6.2766	0.8171
68.2917	6.2766	0.8171
68.3200	6.4894	0.8309
68.3482	6.5957	0.8377
68.3765	8.7234	0.9633
68.4048	6.5957	0.8377
68.4330	6.9149	0.8577
68.4613	7.1277	0.8708
68.4896	7.1429	0.8537
68.5178	5.4082	0.7429
68.5461	6.9388	0.8415
68.5744	6.3265	0.8035
68.6026	6.3265	0.8035
68.6309	7.2449	0.8598
68.6592	6.4286	0.8099
68.6874	5.7143	0.7636
68.7157	6.4286	0.8099
68.7440	5.9184	0.7771
68.7722	5.6122	0.7568
68.8005	6.9388	0.8415
68.8288	8.7755	0.9463
68.8570	7.5510	0.8778
68.8853	6.4286	0.8099
68.9136	7.0408	0.8476
68.9418	6.7347	0.8290
68.9701	7.7551	0.8896
68.9984	5.9184	0.7771
69.0266	6.4286	0.8099
69.0549	5.6122	0.7568
69.0831	6.0204	0.7838
69.1114	6.4286	0.8099
69.1397	6.8367	0.8352
69.1679	6.1224	0.7904
69.1962	7.2449	0.8598
69.2245	6.9388	0.8415
69.2527	6.8367	0.8352
69.2810	5.5102	0.7498
69.3093	6.3265	0.8035
69.3375	8.3673	0.9240
69.3658	5.5102	0.7498
69.3941	6.4286	0.8099
69.4223	6.6327	0.8227
69.4506	7.3469	0.8658
69.4789	6.2245	0.7970
69.5071	6.8000	0.8246
69.5354	7.3000	0.8544
69.5637	7.1000	0.8426
69.5919	7.2000	0.8485
69.6202	6.4000	0.8000
69.6485	6.3000	0.7937
69.6767	6.0000	0.7746
69.7050	6.9000	0.8307
69.7333	8.8000	0.9381
69.7615	6.6000	0.8124
69.7898	6.8000	0.8246
69.8181	8.1000	0.9000
69.8463	7.9000	0.8888
69.8746	8.0000	0.8944
69.9028	7.5000	0.8660
69.9311	9.3000	0.9644
69.9594	8.0000	0.8944
69.9876	6.1000	0.7810
70.0159	7.3000	0.8544
70.0442	8.3000	0.9110
70.0724	8.2000	0.9055
70.1007	8.2000	0.9055
70.1290	8.2000	0.9055
70.1572	8.6000	0.9274
70.1855	7.8000	0.8832
70.2138	8.0000	0.8944
70.2420	8.7000	0.9327
70.2703	9.1000	0.9539
70.2986	7.9000	0.8888
70.3268	10.2000	1.0100
70.3551	8.4000	0.9165
70.3834	9.7000	0.9849
70.4116	11.6000	1.0770
70.4399	11.0000	1.0488
70.4682	9.3000	0.9644
70.4964	9.4000	0.9695
70.5247	10.3000	1.0149
70.5530	11.4000	1.0677
70.5812	10.2000	1.0100
70.6095	12.0000	1.0954
70.6378	12.4000	1.1136
70.6660	12.5000	1.0963
70.6943	13.1731	1.1255
70.7226	14.7115	1.1894
70.7508	16.4423	1.2574
70.7791	15.0000	1.2010
70.8073	16.0577	1.2426
70.8356	15.1923	1.2086
70.8639	19.4231	1.3666
70.8921	18.8462	1.3462
70.9204	19.1346	1.3564
70.9487	21.2500	1.4294
70.9769	21.5385	1.4391
71.0052	21.0577	1.4229
71.0335	25.3846	1.5623
71.0617	23.8462	1.5142
71.0900	29.5192	1.6848
71.1183	27.7885	1.6346
71.1465	35.0000	1.8345
71.1748	33.9423	1.8066
71.2031	35.3846	1.8446
71.2313	39.6154	1.9517
71.2596	41.8269	2.0054
71.2879	41.9231	2.0078
71.3161	44.8077	2.0757
71.3444	47.5000	2.1371
71.3727	48.1731	2.1522
71.4009	53.5577	2.2693
71.4292	55.2885	2.3057
71.4575	59.8077	2.3981
71.4857	64.0385	2.4814
71.5140	62.3077	2.4477
71.5423	65.5769	2.5111
71.5705	68.2692	2.5621
71.5988	76.7308	2.7162
71.6270	73.7500	2.6630
71.6553	73.8462	2.6647
71.6836	70.9615	2.6121
71.7118	64.3269	2.4870
71.7401	73.8462	2.6647
71.7684	68.9423	2.5747
71.7966	65.0962	2.5018
71.8249	61.7593	2.3913
71.8532	55.9259	2.2756
71.8814	56.6667	2.2906
71.9097	53.9815	2.2357
71.9380	47.7778	2.1033
71.9662	44.6296	2.0328
71.9945	42.3148	1.9794
72.0228	45.5556	2.0538
72.0510	46.3889	2.0725
72.0793	40.0926	1.9267
72.1076	36.9444	1.8495
72.1358	35.2778	1.8073
72.1641	32.4545	1.7177
72.1924	34.6364	1.7745
72.2206	32.0909	1.7080
72.2489	30.3636	1.6614
72.2772	32.3636	1.7153
72.3054	26.8182	1.5614
72.3337	24.7273	1.4993
72.3620	27.5455	1.5824
72.3902	21.7273	1.4054
72.4185	21.1818	1.3877
72.4468	18.4545	1.2953
72.4750	17.2727	1.2531
72.5033	14.0909	1.1318
72.5315	14.5455	1.1499
72.5598	13.0909	1.0909
72.5881	10.1818	0.9621
72.6163	10.9091	0.9959
72.6446	12.4545	1.0641
72.6729	11.6364	1.0285
72.7011	10.9091	0.9959
72.7294	10.3636	0.9706
72.7577	8.3636	0.8720
72.7859	8.2727	0.8672
72.8142	9.0000	0.9045
72.8425	7.3636	0.8182
72.8707	8.0909	0.8576
72.8990	6.8182	0.7873
72.9273	7.8182	0.8431
72.9555	6.3636	0.7606
72.9838	7.4545	0.8232
73.0121	9.3636	0.9226
73.0403	10.2727	0.9664
73.0686	7.8182	0.8431
73.0969	8.1818	0.8624
73.1251	7.1818	0.8080
73.1534	6.6364	0.7767
73.1817	6.4545	0.7660
73.2099	7.1818	0.8080
73.2382	7.8182	0.8431
73.2665	7.5455	0.8282
73.2947	5.8182	0.7273
73.3230	6.4545	0.7660
73.3512	6.1818	0.7497
73.3795	6.5789	0.7597
73.4078	6.4035	0.7495
73.4360	7.3684	0.8040
73.4643	7.8947	0.8322
73.4926	7.8947	0.8322
73.5208	7.9825	0.8368
73.5491	6.4912	0.7546
73.5774	7.8947	0.8322
73.6056	6.4912	0.7546
73.6339	7.6316	0.8182
73.6622	6.8421	0.7747
73.6904	7.9825	0.8368
73.7187	5.8772	0.7180
73.7470	5.7018	0.7072
73.7752	7.3684	0.8040
73.8035	6.0526	0.7287
73.8318	6.0526	0.7287
73.8600	6.8421	0.7747
73.8883	6.1404	0.7339
73.9166	7.4561	0.8087
73.9448	6.3158	0.7443
73.9731	5.9649	0.7234
74.0014	6.4035	0.7495
74.0296	7.8070	0.8275
74.0579	5.4386	0.6907
74.0862	5.9649	0.7234
74.1144	6.3158	0.7443
74.1427	7.0175	0.7846
74.1709	7.4561	0.8087
74.1992	6.1404	0.7339
74.2275	6.3158	0.7443
74.2557	7.4561	0.8087
74.2840	6.9298	0.7797
74.3123	6.5789	0.7597
74.3405	6.7544	0.7697
74.3688	6.4035	0.7495
74.3971	5.9649	0.7234
74.4253	6.7544	0.7697
74.4536	7.3684	0.8040
74.4819	6.6667	0.7647
74.5101	6.2281	0.7391
74.5384	6.0526	0.7287
74.5667	7.0175	0.7846
74.5949	6.6667	0.7647
74.6232	5.9322	0.7090
74.6515	5.9322	0.7090
74.6797	8.0508	0.8260
74.7080	5.9322	0.7090
74.7363	6.1017	0.7191
74.7645	6.2712	0.7290
74.7928	6.0169	0.7141
74.8211	6.7797	0.7580
74.8493	5.9322	0.7090
74.8776	7.2881	0.7859
74.9059	5.2542	0.6673
74.9341	5.3390	0.6726
74.9624	6.6102	0.7485
74.9907	6.6102	0.7485
75.0189	6.1017	0.7191
75.0472	7.2034	0.7813
75.0754	5.9322	0.7090
75.1037	6.6949	0.7532
75.1320	7.4576	0.7950
75.1602	5.7627	0.6988
75.1885	6.6949	0.7532
75.2168	7.8814	0.8173
75.2450	7.0339	0.7721
75.2733	6.6949	0.7532
75.3016	7.5424	0.7995
75.3298	7.3729	0.7905
75.3581	6.8333	0.7546
75.3864	5.8333	0.6972
75.4146	7.5000	0.7906
75.4429	7.5000	0.7906
75.4712	5.5000	0.6770
75.4994	6.0833	0.7120
75.5277	6.5833	0.7407
75.5560	5.5833	0.6821
75.5842	6.7500	0.7500
75.6125	6.1667	0.7169
75.6408	7.1667	0.7728
75.6690	6.8333	0.7546
75.6973	6.5833	0.7407
75.7256	5.8333	0.6972
75.7538	6.9167	0.7592
75.7821	4.9167	0.6401
75.8104	6.2500	0.7217
75.8386	6.2500	0.7217
75.8669	6.8333	0.7546
75.8951	6.7500	0.7500
75.9234	4.0833	0.5833
75.9517	6.6667	0.7454
75.9799	6.1667	0.7169
76.0082	5.6667	0.6872
76.0365	4.6667	0.6236
76.0647	6.5833	0.7407
76.0930	5.2500	0.6614
76.1213	6.2500	0.7217
76.1495	6.4167	0.7312
76.1778	5.4167	0.6719
76.2061	6.3333	0.7265
76.2343	5.2500	0.6614
76.2626	6.1667	0.7169
76.2909	6.3333	0.7265
76.3191	6.0000	0.7071
76.3474	6.1667	0.7169
76.3757	5.5000	0.6770
76.4039	4.6667	0.6236
76.4322	6.0833	0.7120
76.4605	6.3333	0.7265
76.4887	6.0000	0.7071
76.5170	5.6452	0.6747
76.5453	6.4516	0.7213
76.5735	5.4839	0.6650
76.6018	5.5645	0.6699
76.6301	5.4839	0.6650
76.6583	5.8065	0.6843
76.6866	5.2419	0.6502
76.7149	7.5806	0.7819
76.7431	5.2419	0.6502
76.7714	5.8871	0.6890
76.7996	5.9677	0.6937
76.8279	5.8871	0.6890
76.8562	5.8065	0.6843
76.8844	4.5968	0.6089
76.9127	5.5645	0.6699
76.9410	6.2903	0.7122
76.9692	5.5645	0.6699
76.9975	6.9355	0.7479
77.0258	6.4516	0.7213
77.0540	5.0000	0.6350
77.0823	5.6452	0.6747
77.1106	7.3387	0.7693
77.1388	7.3387	0.7693
77.1671	5.4032	0.6601
77.1954	5.4839	0.6650
77.2236	7.2581	0.7651
77.2519	6.7742	0.7391
77.2802	6.2097	0.7077
77.3084	5.9677	0.6937
77.3367	6.4516	0.7213
77.3650	4.8387	0.6247
77.3932	5.7258	0.6795
77.4215	6.5323	0.7258
77.4498	5.6452	0.6747
77.4780	5.8065	0.6843
77.5063	6.8548	0.7435
77.5346	6.2097	0.7077
77.5628	7.4194	0.7735
77.5911	5.1613	0.6452
77.6193	7.4194	0.7735
77.6476	6.6129	0.7303
77.6759	6.0484	0.6984
77.7041	5.7031	0.6675
77.7324	6.4063	0.7075
77.7607	5.4688	0.6536
77.7889	5.6250	0.6629
77.8172	5.4688	0.6536
77.8455	5.8594	0.6766
77.8737	6.0938	0.6900
77.9020	6.0156	0.6855
77.9303	5.6250	0.6629
77.9585	5.4688	0.6536
77.9868	6.7188	0.7245
78.0151	5.6250	0.6629
78.0433	6.4844	0.7118
78.0716	4.9219	0.6201
78.0999	5.7813	0.6721
78.1281	5.4688	0.6536
78.1564	6.4844	0.7118
78.1847	5.0000	0.6250
78.2129	5.7813	0.6721
78.2412	5.9375	0.6811
78.2695	5.7813	0.6721
78.2977	5.7692	0.6662
78.3260	5.2308	0.6343
78.3543	7.1538	0.7418
78.3825	6.4615	0.7050
78.4108	4.6923	0.6008
78.4390	7.2308	0.7458
78.4673	6.2308	0.6923
78.4956	7.0769	0.7378
78.5238	6.5385	0.7092
78.5521	6.7692	0.7216
78.5804	6.0000	0.6794
78.6086	6.3846	0.7008
78.6369	6.3077	0.6966
78.6652	5.3846	0.6436
78.6934	6.3077	0.6966
78.7217	5.3077	0.6390
78.7500	4.6154	0.5958
78.7782	6.0000	0.6794
78.8065	6.1538	0.6880
78.8348	6.0769	0.6837
78.8630	5.8462	0.6706
78.8913	6.3077	0.6966
78.9196	5.6154	0.6572
78.9478	5.2308	0.6343
78.9761	6.1538	0.6880
79.0044	6.3077	0.6966
79.0326	5.8462	0.6706
79.0609	7.0000	0.7338
79.0892	6.5385	0.7092
79.1174	6.3846	0.7008
79.1457	6.4615	0.7050
79.1740	5.6923	0.6617
79.2022	5.7692	0.6662
79.2305	6.1538	0.6880
79.2588	6.5385	0.7092
79.2870	6.8462	0.7257
79.3153	6.6923	0.7175
79.3435	6.3077	0.6966
79.3718	5.6154	0.6572
79.4001	5.6154	0.6572
79.4283	5.4615	0.6482
79.4566	6.3846	0.7008
79.4849	6.1538	0.6880
79.5131	6.5385	0.7092
79.5414	6.4925	0.6961
79.5697	5.2985	0.6288
79.5979	6.8657	0.7158
79.6262	4.8507	0.6017
79.6545	5.4478	0.6376
79.6827	5.0746	0.6154
79.7110	6.0448	0.6716
79.7393	6.6418	0.7040
79.7675	5.7463	0.6548
79.7958	6.0448	0.6716
79.8241	5.4478	0.6376
79.8523	6.8657	0.7158
79.8806	5.2985	0.6288
79.9089	5.2239	0.6244
79.9371	6.2687	0.6840
79.9654	7.1642	0.7312
79.9937	5.9701	0.6675
80.0219	5.8955	0.6633
80.0502	5.3676	0.6282
80.0785	6.0294	0.6658
80.1067	5.7353	0.6494
80.1350	4.7794	0.5928
80.1632	5.2941	0.6239
80.1915	5.2206	0.6196
80.2198	5.0735	0.6108
80.2480	5.8088	0.6535
80.2763	7.0588	0.7204
80.3046	5.6618	0.6452
80.3328	6.2500	0.6779
80.3611	5.9559	0.6618
80.3894	6.3971	0.6858
80.4176	4.9265	0.6019
80.4459	5.6618	0.6452
80.4742	6.1765	0.6739
80.5024	5.0735	0.6108
80.5307	6.4706	0.6898
80.5590	7.1324	0.7242
80.5872	7.0588	0.7204
80.6155	6.3971	0.6858
80.6438	5.0735	0.6108
80.6720	6.1765	0.6739
80.7003	6.4706	0.6898
80.7286	5.4412	0.6325
80.7568	6.0870	0.6641
80.7851	5.1449	0.6106
80.8134	6.0870	0.6641
80.8416	6.0145	0.6602
80.8699	6.9565	0.7100
80.8982	5.8696	0.6522
80.9264	6.2319	0.6720
80.9547	4.3478	0.5613
80.9830	7.1739	0.7210
81.0112	5.9420	0.6562
81.0395	6.4493	0.6836
81.0677	6.5942	0.6913
81.0960	5.6522	0.6400
81.1243	4.9275	0.5976
81.1525	4.8551	0.5931
81.1808	5.7971	0.6481
81.2091	7.9286	0.7525
81.2373	6.0714	0.6585
81.2656	4.6429	0.5759
81.2939	6.7143	0.6925
81.3221	7.6429	0.7389
81.3504	6.5714	0.6851
81.3787	6.5714	0.6851
81.4069	6.0000	0.6547
81.4352	5.5714	0.6308
81.4635	5.7143	0.6389
81.4917	6.7143	0.6925
81.5200	6.8571	0.6999
81.5483	6.2143	0.6662
81.5765	5.8571	0.6468
81.6048	6.2143	0.6662
81.6331	6.0000	0.6547
81.6613	5.0000	0.5976
81.6896	7.2143	0.7178
81.7179	6.3571	0.6739
81.7461	6.5714	0.6851
81.7744	6.7143	0.6925
81.8027	6.0714	0.6585
81.8309	5.8571	0.6468
81.8592	5.9286	0.6507
81.8874	6.1429	0.6624
81.9157	7.0714	0.7107
81.9440	4.7143	0.5803
81.9722	5.7857	0.6429
82.0005	7.0000	0.7071
82.0288	5.7143	0.6389
82.0570	6.1429	0.6624
82.0853	7.5000	0.7319
82.1136	6.8571	0.6999
82.1418	6.4286	0.6776
82.1701	5.8571	0.6468
82.1984	6.0000	0.6547
82.2266	6.5000	0.6814
82.2549	6.4286	0.6776
82.2832	5.4286	0.6227
82.3114	6.7143	0.6925
82.3397	5.7143	0.6389
82.3680	6.1429	0.6624
82.3962	5.2778	0.6054
82.4245	6.2500	0.6588
82.4528	5.8333	0.6365
82.4810	6.2500	0.6588
82.5093	6.7361	0.6839
82.5376	5.9722	0.6440
82.5658	6.6667	0.6804
82.5941	6.1111	0.6514
82.6224	6.2500	0.6588
82.6506	6.3889	0.6661
82.6789	6.5972	0.6769
82.7071	6.9444	0.6944
82.7354	5.7639	0.6327
82.7637	6.6667	0.6804
82.7919	5.6250	0.6250
82.8202	6.8750	0.6910
82.8485	6.0417	0.6477
82.8767	6.1806	0.6551
82.9050	6.6667	0.6804
82.9333	5.4861	0.6172
82.9615	6.3889	0.6661
82.9898	6.4583	0.6697
83.0181	5.6944	0.6288
83.0463	6.7361	0.6839
83.0746	7.1528	0.7048
83.1029	6.7361	0.6839
83.1311	5.8333	0.6365
83.1594	6.3194	0.6625
83.1877	5.6250	0.6250
83.2159	6.8493	0.6849
83.2442	5.6164	0.6202
83.2725	6.0959	0.6462
83.3007	7.6027	0.7216
83.3290	7.2603	0.7052
83.3573	6.0959	0.6462
83.3855	6.9178	0.6883
83.4138	6.9863	0.6917
83.4421	6.7123	0.6780
83.4703	8.0137	0.7409
83.4986	6.9863	0.6917
83.5269	7.6712	0.7249
83.5551	6.0811	0.6410
83.5834	7.3649	0.7054
83.6116	6.5541	0.6655
83.6399	8.4459	0.7554
83.6682	6.4865	0.6620
83.6964	6.7568	0.6757
83.7247	8.5135	0.7584
83.7530	7.3649	0.7054
83.7812	7.7703	0.7246
83.8095	7.9730	0.7340
83.8378	7.9054	0.7309
83.8660	7.0946	0.6924
83.8943	9.1892	0.7880
83.9226	7.4324	0.7087
83.9508	8.6486	0.7644
83.9791	7.3649	0.7054
84.0074	7.7703	0.7246
84.0356	8.2432	0.7463
84.0639	9.1216	0.7851
84.0922	8.7162	0.7674
84.1204	9.5946	0.8052
84.1487	8.7838	0.7704
84.1770	8.1757	0.7432
84.2052	10.3378	0.8358
84.2335	10.4054	0.8385
84.2618	10.1351	0.8275
84.2900	11.7568	0.8913
84.3183	10.1351	0.8275
84.3466	11.0811	0.8653
84.3748	10.8784	0.8573
84.4031	11.0811	0.8653
84.4313	13.7838	0.9651
84.4596	11.2667	0.8667
84.4879	13.9333	0.9638
84.5161	12.7333	0.9214
84.5444	16.4667	1.0477
84.5727	15.4667	1.0154
84.6009	19.0667	1.1274
84.6292	18.2667	1.1035
84.6575	20.2000	1.1605
84.6857	20.0000	1.1547
84.7140	20.4000	1.1662
84.7423	22.0000	1.2111
84.7705	22.0000	1.2111
84.7988	23.5333	1.2526
84.8271	23.0667	1.2401
84.8553	23.7333	1.2579
84.8836	25.4667	1.3030
84.9119	24.8000	1.2858
84.9401	20.2667	1.1624
84.9684	22.2667	1.2184
84.9967	23.4000	1.2490
85.0249	22.8667	1.2347
85.0532	20.7333	1.1757
85.0815	21.0000	1.1832
85.1097	19.8000	1.1489
85.1380	20.8667	1.1795
85.1663	21.9333	1.2092
85.1945	21.5333	1.1981
85.2228	19.2667	1.1333
85.2511	18.6667	1.1155
85.2793	16.8000	1.0583
85.3076	15.6667	1.0220
85.3358	15.4000	1.0132
85.3641	16.0000	1.0328
85.3924	15.4000	1.0132
85.4206	15.4000	1.0132
85.4489	13.2667	0.9404
85.4772	12.8000	0.9238
85.5054	13.3333	0.9428
85.5337	13.1333	0.9357
85.5620	11.4000	0.8718
85.5902	11.4667	0.8743
85.6185	10.5333	0.8380
85.6468	11.6667	0.8819
85.6750	11.4286	0.8615
85.7033	10.9091	0.8417
85.7316	12.0779	0.8856
85.7598	12.1429	0.8880
85.7881	10.0649	0.8084
85.8164	9.7403	0.7953
85.8446	9.5455	0.7873
85.8729	9.9351	0.8032
85.9012	8.2051	0.7252
85.9294	10.0000	0.8006
85.9577	8.0769	0.7195
85.9860	8.9103	0.7558
86.0142	9.4231	0.7772
86.0425	8.3333	0.7309
86.0708	9.3590	0.7746
86.0990	7.3718	0.6874
86.1273	7.8846	0.7109
86.1555	7.1154	0.6754
86.1838	7.6923	0.7022
86.2121	6.3462	0.6378
86.2403	6.7949	0.6600
86.2686	7.2436	0.6814
86.2969	6.3462	0.6378
86.3251	7.3718	0.6874
86.3534	7.5641	0.6963
86.3817	7.3077	0.6844
86.4099	6.5385	0.6474
86.4382	5.6410	0.6013
86.4665	6.6026	0.6506
86.4947	7.2436	0.6814
86.5230	5.9615	0.6182
86.5513	6.7949	0.6600
86.5795	7.7564	0.7051
86.6078	6.9872	0.6693
86.6361	6.2179	0.6313
86.6643	7.0513	0.6723
86.6926	6.9231	0.6662
86.7209	6.6667	0.6537
86.7491	6.7949	0.6600
86.7774	8.0128	0.7167
86.8057	6.8590	0.6631
86.8339	6.8590	0.6631
86.8622	7.0513	0.6723
86.8905	6.7089	0.6516
86.9187	6.8354	0.6577
86.9470	7.6582	0.6962
86.9752	5.8861	0.6104
87.0035	5.9494	0.6136
87.0318	6.4557	0.6392
87.0600	6.3750	0.6312
87.0883	5.6250	0.5929
87.1166	6.5625	0.6404
87.1448	5.4375	0.5830
87.1731	6.8750	0.6555
87.2014	6.5625	0.6404
87.2296	5.5625	0.5896
87.2579	7.7500	0.6960
87.2862	6.3125	0.6281
87.3144	6.1250	0.6187
87.3427	6.7500	0.6495
87.3710	6.2500	0.6250
87.3992	6.1250	0.6187
87.4275	6.0625	0.6156
87.4558	6.3125	0.6281
87.4840	5.8750	0.6060
87.5123	5.5625	0.5896
87.5406	5.8750	0.6060
87.5688	6.7500	0.6495
87.5971	5.3125	0.5762
87.6254	6.0000	0.6124
87.6536	6.0000	0.6124
87.6819	7.4375	0.6818
87.7102	5.7500	0.5995
87.7384	5.7500	0.5995
87.7667	7.1250	0.6673
87.7950	7.5000	0.6847
87.8232	5.8750	0.6060
87.8515	5.6875	0.5962
87.8797	6.0625	0.6156
87.9080	6.0625	0.6156
87.9363	5.7500	0.5995
87.9645	5.8750	0.6060
87.9928	6.1875	0.6219
88.0211	7.2500	0.6731
88.0493	7.2500	0.6731
88.0776	6.1875	0.6219
88.1059	6.1250	0.6187
88.1341	7.1875	0.6702
88.1624	6.8125	0.6525
88.1907	6.3750	0.6312
88.2189	5.2500	0.5728
88.2472	6.2963	0.6234
88.2755	6.7901	0.6474
88.3037	5.5556	0.5856
88.3320	6.0494	0.6111
88.3603	7.1605	0.6648
88.3885	7.9012	0.6984
88.4168	6.2346	0.6204
88.4451	6.9136	0.6533
88.4733	5.6790	0.5921
88.5016	7.0370	0.6591
88.5299	6.2963	0.6234
88.5581	6.4815	0.6325
88.5864	6.4198	0.6295
88.6147	6.9753	0.6562
88.6429	7.1605	0.6648
88.6712	5.8025	0.5985
88.6994	7.1605	0.6648
88.7277	6.8519	0.6503
88.7560	5.8025	0.5985
88.7842	6.1728	0.6173
88.8125	6.6667	0.6415
88.8408	5.4321	0.5791
88.8690	6.6049	0.6385
88.8973	6.0494	0.6111
88.9256	6.5432	0.6355
88.9538	7.4074	0.6762
88.9821	6.4198	0.6295
89.0104	6.0494	0.6111
89.0386	6.2963	0.6234
89.0669	7.2840	0.6705
89.0952	6.0494	0.6111
89.1234	6.2963	0.6234
89.1517	7.2840	0.6705
89.1800	6.0494	0.6111
89.2082	6.4815	0.6325
89.2365	6.1111	0.6142
89.2648	7.9012	0.6984
89.2930	5.9877	0.6080
89.3213	6.4198	0.6295
89.3496	6.8072	0.6404
89.3778	5.9639	0.5994
89.4061	6.0714	0.6012
89.4344	7.6786	0.6761
89.4626	6.3095	0.6128
89.4909	5.7143	0.5832
89.5192	7.3810	0.6628
89.5474	6.8452	0.6383
89.5757	5.7143	0.5832
89.6039	7.5595	0.6708
89.6322	6.7857	0.6355
89.6605	5.9524	0.5952
89.6887	7.6786	0.6761
89.7170	6.3690	0.6157
89.7453	6.9048	0.6411
89.7735	5.5952	0.5771
89.8018	6.3690	0.6157
89.8301	6.9643	0.6438
89.8583	7.2024	0.6548
89.8866	6.0714	0.6012
89.9149	5.4167	0.5678
89.9431	5.8333	0.5893
89.9714	7.1429	0.6521
89.9997	5.7143	0.5832
90.0279	7.0238	0.6466
90.0562	6.7857	0.6355
90.0845	6.5476	0.6243
90.1127	6.9048	0.6411
90.1410	6.7857	0.6355
90.1693	5.4762	0.5709
90.1975	7.4405	0.6655
90.2258	7.3214	0.6602
90.2541	6.3095	0.6128
90.2823	5.1786	0.5552
90.3106	6.6667	0.6299
90.3389	5.6548	0.5802
90.3671	7.2619	0.6575
90.3954	5.5357	0.5740
90.4236	5.8333	0.5893
90.4519	7.7381	0.6787
90.4802	6.3095	0.6128
90.5084	6.7857	0.6355
90.5367	5.8929	0.5923
90.5650	6.7262	0.6327
90.5932	6.2353	0.6056
90.6215	6.2941	0.6085
90.6498	5.7647	0.5823
90.6780	6.3529	0.6113
90.7063	7.3529	0.6577
90.7346	6.5882	0.6225
90.7628	5.3529	0.5611
90.7911	6.3529	0.6113
90.8194	8.4706	0.7059
90.8476	7.9412	0.6835
90.8759	6.5294	0.6197
90.9042	6.7059	0.6281
90.9324	6.5294	0.6197
90.9607	5.7647	0.5823
90.9890	6.7647	0.6308
91.0172	6.5882	0.6225
91.0455	6.5294	0.6197
91.0738	6.5882	0.6225
91.1020	5.4706	0.5673
91.1303	6.2353	0.6056
91.1586	6.5882	0.6225
91.1868	7.2353	0.6524
91.2151	7.3529	0.6577
91.2433	6.4118	0.6141
91.2716	4.7647	0.5294
91.2999	5.7059	0.5793
91.3281	6.2353	0.6056
91.3564	7.0588	0.6444
91.3847	8.0000	0.6860
91.4129	6.2353	0.6056
91.4412	5.5294	0.5703
91.4695	6.2353	0.6056
91.4977	7.0588	0.6444
91.5260	7.5294	0.6655
91.5543	6.5882	0.6225
91.5825	7.7059	0.6733
91.6108	7.5294	0.6655
91.6391	6.4706	0.6169
91.6673	6.1765	0.6028
91.6956	6.4118	0.6141
91.7239	7.8235	0.6784
91.7521	7.1512	0.6448
91.7804	6.8023	0.6289
91.8087	6.0227	0.5850
91.8369	6.0795	0.5877
91.8652	7.6136	0.6577
91.8935	7.3864	0.6478
91.9217	6.8750	0.6250
91.9500	7.5000	0.6528
91.9783	6.4205	0.6040
92.0065	5.9659	0.5822
92.0348	5.6250	0.5653
92.0631	7.5000	0.6528
92.0913	5.9659	0.5822
92.1196	7.2727	0.6428
92.1478	6.5341	0.6093
92.1761	6.6477	0.6146
92.2044	7.7841	0.6650
92.2326	7.3864	0.6478
92.2609	7.8409	0.6675
92.2892	6.7045	0.6172
92.3174	5.5682	0.5625
92.3457	7.7841	0.6650
92.3740	6.9886	0.6301
92.4022	6.0227	0.5850
92.4305	7.6705	0.6602
92.4588	6.6477	0.6146
92.4870	6.4773	0.6067
92.5153	6.6477	0.6146
92.5436	6.9318	0.6276
92.5718	7.0455	0.6327
92.6001	7.2727	0.6428
92.6284	7.3295	0.6453
92.6566	7.1023	0.6352
92.6849	6.4773	0.6067
92.7132	7.5000	0.6528
92.7414	6.5909	0.6120
92.7697	6.7045	0.6172
92.7980	6.6477	0.6146
92.8262	7.0455	0.6327
92.8545	7.2727	0.6428
92.8828	7.4432	0.6503
92.9110	7.6136	0.6577
92.9393	6.3483	0.5972
92.9675	6.2360	0.5919
92.9958	7.5843	0.6528
93.0241	6.9663	0.6256
93.0523	7.5556	0.6479
93.0806	8.2222	0.6759
93.1089	6.7778	0.6136
93.1371	7.8333	0.6597
93.1654	7.8889	0.6620
93.1937	8.7222	0.6961
93.2219	7.3889	0.6407
93.2502	6.4444	0.5984
93.2785	7.3333	0.6383
93.3067	7.2222	0.6334
93.3350	7.5556	0.6479
93.3633	7.6111	0.6503
93.3915	8.0556	0.6690
93.4198	7.0556	0.6261
93.4481	6.2778	0.5906
93.4763	7.1667	0.6310
93.5046	8.0556	0.6690
93.5329	7.7222	0.6550
93.5611	7.2222	0.6334
93.5894	6.7778	0.6136
93.6177	7.7778	0.6573
93.6459	6.8333	0.6161
93.6742	7.0556	0.6261
93.7025	6.7778	0.6136
93.7307	6.7222	0.6111
93.7590	6.8333	0.6161
93.7872	7.2778	0.6359
93.8155	7.8333	0.6597
93.8438	8.3333	0.6804
93.8720	8.2778	0.6781
93.9003	7.7222	0.6550
93.9286	7.2778	0.6359
93.9568	7.3333	0.6383
93.9851	8.1111	0.6713
94.0134	7.7778	0.6573
94.0416	7.3889	0.6407
94.0699	7.3889	0.6407
94.0982	7.3889	0.6407
94.1264	7.0556	0.6261
94.1547	7.3333	0.6383
94.1830	8.0556	0.6690
94.2112	8.6667	0.6939
94.2395	7.3889	0.6407
94.2678	8.7363	0.6928
94.2960	8.2418	0.6729
94.3243	7.0879	0.6241
94.3526	7.2527	0.6313
94.3808	7.5275	0.6431
94.4091	7.1978	0.6289
94.4374	7.6374	0.6478
94.4656	8.4066	0.6796
94.4939	9.2857	0.7143
94.5222	7.3077	0.6337
94.5504	7.2527	0.6313
94.5787	7.8571	0.6570
94.6070	8.9560	0.7015
94.6352	8.2418	0.6729
94.6635	8.7912	0.6950
94.6917	7.1429	0.6265
94.7200	6.8132	0.6118
94.7483	8.6813	0.6906
94.7765	8.4066	0.6796
94.8048	7.5275	0.6431
94.8331	7.7473	0.6524
94.8613	9.3956	0.7185
94.8896	7.5275	0.6431
94.9179	7.9121	0.6593
94.9461	8.6264	0.6885
94.9744	7.9670	0.6616
95.0027	7.8022	0.6547
95.0309	8.2418	0.6729
95.0592	9.2857	0.7143
95.0875	9.0110	0.7036
95.1157	8.0220	0.6639
95.1440	9.0659	0.7058
95.1723	8.4615	0.6819
95.2005	8.7363	0.6928
95.2288	8.6813	0.6906
95.2571	7.3626	0.6360
95.2853	8.8172	0.6885
95.3136	8.6559	0.6822
95.3419	10.2151	0.7411
95.3701	8.5484	0.6779
95.3984	9.0860	0.6989
95.4267	9.3548	0.7092
95.4549	10.8065	0.7622
95.4832	9.1398	0.7010
95.5114	8.8298	0.6853
95.5397	7.9255	0.6493
95.5680	7.1809	0.6180
95.5962	8.6702	0.6791
95.6245	8.4043	0.6686
95.6528	7.8723	0.6471
95.6810	8.1383	0.6579
95.7093	9.6809	0.7176
95.7376	7.9255	0.6493
95.7658	9.6809	0.7176
95.7941	8.7766	0.6833
95.8224	9.0957	0.6956
95.8506	9.1489	0.6976
95.8789	8.8830	0.6874
95.9072	9.6809	0.7176
95.9354	9.5213	0.7117
95.9637	9.3617	0.7057
95.9920	8.5638	0.6749
96.0202	8.8298	0.6853
96.0485	8.9894	0.6915
96.0768	8.8830	0.6874
96.1050	9.4681	0.7097
96.1333	9.1489	0.6976
96.1616	9.7340	0.7196
96.1898	10.2128	0.7370
96.2181	9.0957	0.6956
96.2464	9.0957	0.6956
96.2746	10.1064	0.7332
96.3029	9.7872	0.7215
96.3312	10.4255	0.7447
96.3594	10.0532	0.7313
96.3877	10.2660	0.7390
96.4159	10.1596	0.7351
96.4442	10.2632	0.7350
96.4725	10.7895	0.7536
96.5007	9.3158	0.7002
96.5290	10.5789	0.7462
96.5573	10.0000	0.7255
96.5855	10.0000	0.7255
96.6138	11.2105	0.7681
96.6421	11.5263	0.7789
96.6703	11.7368	0.7860
96.6986	11.5789	0.7807
96.7269	11.4737	0.7771
96.7551	9.5789	0.7100
96.7834	11.7895	0.7877
96.8117	12.2105	0.8017
96.8399	13.2105	0.8338
96.8682	11.2632	0.7699
96.8965	12.8421	0.8221
96.9247	13.0000	0.8272
96.9530	13.6316	0.8470
96.9813	13.4737	0.8421
97.0095	14.2105	0.8648
97.0378	14.0000	0.8584
97.0661	14.4211	0.8712
97.0943	14.3158	0.8680
97.1226	13.8421	0.8535
97.1509	14.4211	0.8712
97.1791	16.2632	0.9252
97.2074	15.6316	0.9070
97.2356	16.9474	0.9444
97.2639	18.4737	0.9861
97.2922	15.0526	0.8901
97.3204	17.4211	0.9575
97.3487	19.7895	1.0206
97.3770	18.5263	0.9875
97.4052	18.5789	0.9889
97.4335	19.1579	1.0041
97.4618	20.6842	1.0434
97.4900	22.0000	1.0761
97.5183	20.7895	1.0460
97.5466	21.5789	1.0657
97.5748	24.1579	1.1276
97.6031	27.3958	1.1945
97.6314	28.5417	1.2192
97.6596	28.9063	1.2270
97.6879	30.7813	1.2662
97.7162	29.5313	1.2402
97.7444	28.8542	1.2259
97.7727	30.6771	1.2640
97.8010	33.8542	1.3279
97.8292	32.7083	1.3052
97.8575	32.1354	1.2937
97.8858	33.6458	1.3238
97.9140	33.3854	1.3186
97.9423	37.0833	1.3898
97.9706	36.9898	1.3738
97.9988	34.6939	1.3304
98.0271	36.6327	1.3671
98.0553	36.2755	1.3604
98.0836	35.8163	1.3518
98.1119	36.5306	1.3652
98.1401	35.1531	1.3392
98.1684	39.6939	1.4231
98.1967	33.0612	1.2988
98.2249	37.2959	1.3794
98.2532	34.0306	1.3177
98.2815	33.8776	1.3147
98.3097	33.3673	1.3048
98.3380	32.8061	1.2937
98.3663	30.4592	1.2466
98.3945	32.3980	1.2857
98.4228	28.4184	1.2041
98.4511	28.5204	1.2063
98.4793	29.6429	1.2298
98.5076	29.8980	1.2351
98.5359	26.9388	1.1724
98.5641	27.8061	1.1911
98.5924	26.2755	1.1578
98.6207	24.9490	1.1282
98.6489	24.7959	1.1248
98.6772	25.3571	1.1374
98.7055	24.7959	1.1248
98.7337	20.8163	1.0306
98.7620	20.8673	1.0318
98.7903	21.7857	1.0543
98.8185	21.0204	1.0356
98.8468	19.2857	0.9920
98.8751	20.3571	1.0191
98.9033	18.1633	0.9627
98.9316	16.0714	0.9055
98.9598	17.2959	0.9394
98.9881	17.3980	0.9422
99.0164	16.9697	0.9258
99.0446	15.3030	0.8791
99.0729	14.6970	0.8616
99.1012	14.4444	0.8541
99.1294	13.5354	0.8268
99.1577	13.9899	0.8406
99.1860	12.9000	0.8031
99.2142	12.5000	0.7906
99.2425	13.6500	0.8261
99.2708	12.9500	0.8047
99.2990	14.1500	0.8411
99.3273	12.2500	0.7826
99.3556	10.8500	0.7365
99.3838	13.1000	0.8093
99.4121	12.5500	0.7921
99.4404	12.7000	0.7969
99.4686	13.5000	0.8216
99.4969	13.0500	0.8078
99.5252	12.7500	0.7984
99.5534	11.6500	0.7632
99.5817	12.4500	0.7890
99.6100	13.0500	0.8078
99.6382	11.4500	0.7566
99.6665	13.2000	0.8124
99.6948	12.3000	0.7842
99.7230	10.9000	0.7382
99.7513	11.5500	0.7599
99.7795	11.3000	0.7517
99.8078	12.8000	0.8000
99.8361	11.4500	0.7566
99.8643	12.6500	0.7953
99.8926	12.2000	0.7810
99.9209	9.6000	0.6928
99.9491	11.0500	0.7433
99.9774	10.7500	0.7331
100.0057	10.7000	0.7314
100.0339	11.1000	0.7450
100.0622	11.1000	0.7450
100.0905	10.2000	0.7141
100.1187	12.3500	0.7858
100.1470	13.0500	0.8078
100.1753	9.9000	0.7036
100.2035	10.0500	0.7089
100.2318	10.0500	0.7089
100.2601	12.0500	0.7762
100.2883	10.7000	0.7314
100.3166	10.6000	0.7280
100.3449	11.3500	0.7533
100.3731	11.5000	0.7583
100.4014	11.8500	0.7697
100.4297	11.6337	0.7589
100.4579	11.4356	0.7524
100.4862	12.6733	0.7921
100.5145	12.2277	0.7780
100.5427	10.5446	0.7225
100.5710	11.5842	0.7573
100.5993	12.3267	0.7812
100.6275	9.6535	0.6913
100.6558	11.5347	0.7557
100.6840	10.3960	0.7174
100.7123	11.0891	0.7409
100.7406	12.1782	0.7765
100.7688	12.5743	0.7890
100.7971	11.1881	0.7442
100.8254	11.0396	0.7393
100.8536	13.3168	0.8119
100.8819	11.2871	0.7475
100.9102	11.1881	0.7442
100.9384	12.2772	0.7796
100.9667	12.1287	0.7749
100.9950	10.7921	0.7309
101.0232	11.1881	0.7442
101.0515	11.6337	0.7589
101.0798	11.4851	0.7540
101.1080	11.1386	0.7426
101.1363	10.8416	0.7326
101.1646	10.6931	0.7276
101.1928	12.2772	0.7796
101.2211	10.7921	0.7309
101.2494	10.8416	0.7326
101.2776	12.0792	0.7733
101.3059	10.8911	0.7343
101.3342	12.1782	0.7765
101.3624	10.3960	0.7174
101.3907	9.7525	0.6948
101.4190	11.0396	0.7393
101.4472	11.5347	0.7557
101.4755	10.9901	0.7376
101.5037	12.4257	0.7843
101.5320	12.5248	0.7874
101.5603	10.6931	0.7276
101.5885	11.9802	0.7701
101.6168	11.3366	0.7491
101.6451	12.4752	0.7859
101.6733	12.2277	0.7780
101.7016	11.0396	0.7393
101.7299	11.1881	0.7442
101.7581	10.8416	0.7326
101.7864	10.9406	0.7359
101.8147	12.2772	0.7796
101.8429	10.8738	0.7265
101.8712	10.2404	0.7017
101.8995	11.8750	0.7556
101.9277	11.6827	0.7494
101.9560	10.7692	0.7195
101.9843	10.4327	0.7082
102.0125	11.3942	0.7401
102.0408	10.7212	0.7179
102.0691	11.2981	0.7370
102.0973	12.1635	0.7647
102.1256	12.3077	0.7692
102.1539	12.0192	0.7602
102.1821	12.0192	0.7602
102.2104	10.4808	0.7098
102.2387	11.8269	0.7541
102.2669	11.5865	0.7464
102.2952	11.2981	0.7370
102.3234	11.2019	0.7339
102.3517	11.3942	0.7401
102.3800	10.3365	0.7049
102.4082	10.2885	0.7033
102.4365	11.7788	0.7525
102.4648	11.8750	0.7556
102.4930	13.0769	0.7929
102.5213	13.2692	0.7987
102.5496	11.2019	0.7339
102.5778	13.0769	0.7929
102.6061	14.4712	0.8341
102.6344	12.5481	0.7767
102.6626	12.3558	0.7707
102.6909	12.3077	0.7692
102.7192	13.0769	0.7929
102.7474	11.9712	0.7586
102.7757	11.5385	0.7448
102.8040	12.7404	0.7826
102.8322	10.9615	0.7259
102.8605	11.9231	0.7571
102.8888	12.9327	0.7885
102.9170	11.3942	0.7401
102.9453	10.7692	0.7195
102.9736	11.7788	0.7525
103.0018	11.2019	0.7339
103.0301	11.5865	0.7464
103.0584	12.5000	0.7752
103.0866	11.0096	0.7275
103.1149	12.9808	0.7900
103.1432	11.1058	0.7307
103.1714	11.3462	0.7386
103.1997	11.5385	0.7448
103.2279	11.8750	0.7556
103.2562	11.0952	0.7269
103.2845	13.2381	0.7940
103.3127	12.8095	0.7810
103.3410	12.3333	0.7664
103.3693	12.1429	0.7604
103.3975	12.1905	0.7619
103.4258	11.6190	0.7438
103.4541	13.0000	0.7868
103.4823	11.8095	0.7499
103.5106	12.4286	0.7693
103.5389	11.7619	0.7484
103.5671	12.2381	0.7634
103.5954	13.7143	0.8081
103.6237	12.4762	0.7708
103.6519	13.1905	0.7925
103.6802	11.7143	0.7469
103.7085	11.5238	0.7408
103.7367	12.0952	0.7589
103.7650	14.1905	0.8220
103.7933	13.0000	0.7868
103.8215	12.3333	0.7664
103.8498	12.1429	0.7604
103.8781	12.1429	0.7604
103.9063	11.7619	0.7484
103.9346	11.5714	0.7423
103.9629	12.0476	0.7574
103.9911	11.3810	0.7362
104.0194	13.7143	0.8081
104.0476	12.9524	0.7854
104.0759	13.1905	0.7925
104.1042	12.9524	0.7854
104.1324	11.4286	0.7377
104.1607	12.2857	0.7649
104.1890	12.0476	0.7574
104.2172	12.5238	0.7723
104.2455	12.3333	0.7664
104.2738	11.6190	0.7438
104.3020	11.5238	0.7408
104.3303	11.5714	0.7423
104.3586	12.0000	0.7559
104.3868	12.1429	0.7604
104.4151	13.2381	0.7940
104.4434	13.8095	0.8109
104.4716	11.5714	0.7423
104.4999	13.0000	0.7868
104.5282	11.3333	0.7346
104.5564	13.5714	0.8039
104.5847	12.2857	0.7649
104.6130	12.2381	0.7634
104.6412	11.8571	0.7514
104.6695	12.6887	0.7736
104.6978	13.4434	0.7963
104.7260	13.0189	0.7836
104.7543	11.3679	0.7323
104.7826	13.5849	0.8005
104.8108	12.7315	0.7677
104.8391	13.1944	0.7816
104.8674	12.7778	0.7691
104.8956	14.2593	0.8125
104.9239	13.0093	0.7761
104.9521	13.7037	0.7965
104.9804	14.2593	0.8125
105.0087	12.9630	0.7747
105.0369	13.1944	0.7816
105.0652	11.9444	0.7436
105.0935	13.1019	0.7788
105.1217	12.5926	0.7635
105.1500	12.0370	0.7465
105.1783	12.2222	0.7522
105.2065	13.7963	0.7992
105.2348	14.1204	0.8085
105.2631	9.7685	0.6725
105.2913	12.3611	0.7565
105.3196	11.9444	0.7436
105.3479	11.2500	0.7217
105.3761	10.7870	0.7067
105.4044	12.4537	0.7593
105.4327	13.7037	0.7965
105.4609	11.6667	0.7349
105.4892	12.0370	0.7465
105.5175	12.3611	0.7565
105.5457	12.1296	0.7494
105.5740	12.4537	0.7593
105.6023	12.9630	0.7747
105.6305	13.7037	0.7965
105.6588	13.4259	0.7884
105.6871	12.8241	0.7705
105.7153	13.2870	0.7843
105.7436	12.4537	0.7593
105.7718	11.6204	0.7335
105.8001	14.1204	0.8085
105.8284	13.7963	0.7992
105.8566	12.7778	0.7691
105.8849	11.4352	0.7276
105.9132	11.7130	0.7364
105.9414	12.5000	0.7607
105.9697	12.6389	0.7649
105.9980	11.1574	0.7187
106.0262	13.4259	0.7884
106.0545	13.7500	0.7979
106.0828	11.3303	0.7209
106.1110	13.2569	0.7798
106.1393	11.8349	0.7368
106.1676	11.6055	0.7296
106.1958	11.3303	0.7209
106.2241	12.9817	0.7717
106.2524	12.8440	0.7676
106.2806	11.9545	0.7371
106.3089	13.0909	0.7714
106.3372	11.6364	0.7273
106.3654	13.2727	0.7767
106.3937	12.4545	0.7524
106.4220	13.4545	0.7820
106.4502	13.1364	0.7727
106.4785	12.4545	0.7524
106.5068	12.5455	0.7551
106.5350	13.2727	0.7767
106.5633	12.3182	0.7483
106.5915	13.3636	0.7794
106.6198	12.6364	0.7579
106.6481	13.0455	0.7700
106.6763	13.0909	0.7714
106.7046	12.7727	0.7620
106.7329	13.4545	0.7820
106.7611	11.7273	0.7301
106.7894	12.7727	0.7620
106.8177	12.9545	0.7674
106.8459	13.1818	0.7741
106.8742	12.3182	0.7483
106.9025	13.0455	0.7700
106.9307	12.9091	0.7660
106.9590	13.7727	0.7912
106.9873	11.8636	0.7343
107.0155	12.4091	0.7510
107.0438	12.0000	0.7385
107.0721	14.0455	0.7990
107.1003	13.2727	0.7767
107.1286	13.3182	0.7781
107.1569	13.0000	0.7687
107.1851	13.5455	0.7847
107.2134	12.5909	0.7565
107.2417	12.3182	0.7483
107.2699	13.1818	0.7741
107.2982	12.8636	0.7647
107.3265	12.4545	0.7524
107.3547	13.0000	0.7687
107.3830	13.5455	0.7847
107.4113	13.3636	0.7794
107.4395	12.9091	0.7660
107.4678	12.1818	0.7441
107.4960	13.1364	0.7727
107.5243	12.8182	0.7633
107.5526	12.2727	0.7469
107.5808	13.7273	0.7899
107.6091	13.3636	0.7794
107.6374	12.1818	0.7441
107.6656	12.3182	0.7483
107.6939	13.0909	0.7714
107.7222	14.1364	0.8016
107.7504	12.7027	0.7564
107.7787	13.4685	0.7789
107.8070	12.5676	0.7524
107.8352	12.7928	0.7591
107.8635	12.5676	0.7524
107.8918	13.1532	0.7697
107.9200	12.7928	0.7591
107.9483	13.1982	0.7710
107.9766	12.5676	0.7524
108.0048	13.9189	0.7918
108.0331	13.3333	0.7750
108.0614	14.0541	0.7957
108.0896	13.6937	0.7854
108.1179	13.8739	0.7905
108.1462	11.9820	0.7347
108.1744	13.0631	0.7671
108.2027	13.6937	0.7854
108.2310	15.0901	0.8245
108.2592	11.9820	0.7347
108.2875	13.6937	0.7854
108.3157	13.7838	0.7880
108.3440	11.9369	0.7333
108.3723	14.8649	0.8183
108.4005	13.3784	0.7763
108.4288	12.7477	0.7578
108.4571	13.9189	0.7918
108.4853	12.8829	0.7618
108.5136	14.5045	0.8083
108.5419	12.8378	0.7604
108.5701	12.5225	0.7511
108.5984	12.5225	0.7511
108.6267	12.0721	0.7374
108.6549	14.0541	0.7957
108.6832	12.7928	0.7591
108.7115	12.6364	0.7579
108.7397	11.6364	0.7273
108.7680	13.6239	0.7905
108.7963	15.0000	0.8333
108.8245	12.9717	0.7822
108.8528	12.8571	0.7825
108.8811	12.7619	0.7796
108.9093	14.4712	0.8341
108.9376	11.6019	0.7505
108.9659	13.2178	0.8089
108.9941	12.8000	0.8000
109.0224	12.8000	0.8000
109.0507	13.2323	0.8175
109.0789	13.5204	0.8306
109.1072	12.8646	0.8186
109.1355	12.8947	0.8238
109.1637	14.4211	0.8712
109.1920	13.5638	0.8494
109.2202	13.8830	0.8593
109.2485	11.8817	0.7993
109.2768	12.4176	0.8260
109.3050	14.2222	0.8889
109.3333	13.8889	0.8784
109.3616	14.9438	0.9163
109.3898	12.7841	0.8523
109.4181	13.9535	0.9007
109.4464	12.4118	0.8545
109.4746	14.1765	0.9132
109.5029	12.6786	0.8687
109.5312	13.3735	0.8976
109.5594	12.9012	0.8924
109.5877	12.1250	0.8705
109.6160	13.3125	0.9122
109.6442	13.7975	0.9345
109.6725	13.7821	0.9399
109.7008	14.1558	0.9588
109.7290	14.8667	0.9955
109.7573	13.8000	0.9592
109.7856	13.3784	0.9508
109.8138	13.1507	0.9491
109.8421	13.2639	0.9597
109.8704	13.8571	0.9949
109.8986	13.7143	0.9897
109.9269	13.3333	0.9829
109.9552	15.0000	1.0502
109.9834	13.2090	0.9928
