1.544427
20.0141	54.6667	2.4646
20.0424	54.4444	2.4595
20.0707	50.5556	2.3701
20.0989	48.7778	2.3280
20.1272	48.3333	2.3174
20.1555	45.0000	2.2361
20.1837	47.3333	2.2933
20.2120	46.0000	2.2608
20.2403	46.4444	2.2717
20.2685	49.2222	2.3386
20.2968	51.0000	2.3805
20.3251	48.6667	2.3254
20.3533	44.3333	2.2194
20.3816	49.7778	2.3518
20.4099	46.1111	2.2635
20.4381	48.3333	2.3174
20.4664	48.2222	2.3147
20.4946	44.2222	2.2167
20.5229	51.5556	2.3934
20.5512	50.5556	2.3701
20.5794	49.2222	2.3386
20.6077	42.7778	2.1802
20.6360	47.7778	2.3040
20.6642	45.8889	2.2580
20.6925	45.1111	2.2388
20.7208	47.4444	2.2960
20.7490	47.6842	2.2404
20.7773	49.4737	2.2821
20.8056	47.5789	2.2379
20.8338	46.0000	2.2005
20.8621	45.1579	2.1802
20.8904	48.5263	2.2601
20.9186	47.2632	2.2305
20.9469	47.2632	2.2305
20.9752	42.1053	2.1053
21.0034	40.5263	2.0654
21.0317	42.5263	2.1158
21.0600	46.8421	2.2205
21.0882	48.0000	2.2478
21.1165	44.9474	2.1752
21.1448	44.3158	2.1598
21.1730	44.5263	2.1649
21.2013	45.7895	2.1954
21.2296	44.4211	2.1624
21.2578	45.8947	2.1980
21.2861	49.2000	2.2181
21.3143	40.5000	2.0125
21.3426	44.8000	2.1166
21.3709	46.2000	2.1494
21.3991	46.6000	2.1587
21.4274	40.6000	2.0149
21.4557	47.3000	2.1749
21.4839	46.0000	2.1448
21.5122	44.7000	2.1142
21.5405	46.9000	2.1656
21.5687	45.0000	2.1213
21.5970	44.5000	2.1095
21.6253	44.7000	2.1142
21.6535	46.3000	2.1517
21.6818	44.3000	2.1048
21.7101	42.9000	2.0712
21.7383	45.4000	2.1307
21.7666	46.2000	2.1494
21.7949	41.4000	2.0347
21.8231	44.3000	2.1048
21.8514	39.8000	1.9950
21.8797	44.2000	2.1024
21.9079	44.8000	2.1166
21.9362	38.1000	1.9519
21.9645	44.2000	2.1024
21.9927	42.3000	2.0567
22.0210	45.9000	2.1424
22.0493	44.4000	2.1071
22.0775	43.6000	2.0881
22.1058	45.9000	2.1424
22.1340	45.4000	2.1307
22.1623	41.6000	2.0396
22.1906	42.1000	2.0518
22.2188	37.7000	1.9416
22.2471	39.3000	1.9824
22.2754	41.6000	2.0396
22.3036	42.8000	2.0688
22.3319	48.6000	2.2045
22.3602	46.4000	2.1541
22.3884	43.9000	2.0952
22.4167	43.8000	2.0928
22.4450	39.4000	1.9849
22.4732	44.6000	2.1119
22.5015	41.1000	2.0273
22.5298	39.7000	1.9925
22.5580	41.4000	2.0347
22.5863	41.8000	2.0445
22.6146	40.3000	2.0075
22.6428	42.5000	2.0616
22.6711	41.2000	2.0298
22.6994	38.1000	1.9519
22.7276	41.7000	2.0421
22.7559	39.9000	1.9975
22.7842	42.5000	2.0616
22.8124	43.7000	2.0905
22.8407	41.9000	2.0469
22.8690	43.2000	2.0785
22.8972	42.9000	2.0712
22.9255	45.6000	2.1354
22.9538	40.9000	2.0224
22.9820	35.6000	1.8868
23.0103	40.7000	2.0174
23.0385	40.5000	2.0125
23.0668	44.1000	2.1000
23.0951	36.9000	1.9209
23.1233	40.2000	2.0050
23.1516	44.5000	2.1095
23.1799	42.8000	2.0688
23.2081	38.8000	1.9698
23.2364	34.5000	1.8574
23.2647	39.1000	1.9774
23.2929	42.3000	2.0567
23.3212	39.0000	1.9748
23.3495	40.7000	2.0174
23.3777	39.3000	1.9824
23.4060	37.0000	1.9235
23.4343	39.3000	1.9824
23.4625	38.9000	1.9723
23.4908	37.3000	1.9313
23.5191	37.3000	1.9313
23.5473	35.6000	1.8868
23.5756	39.1000	1.9774
23.6039	41.9000	2.0469
23.6321	38.6000	1.9647
23.6604	38.9000	1.9723
23.6887	39.7000	1.9925
23.7169	41.4000	2.0347
23.7452	37.9000	1.9468
23.7735	36.5000	1.9105
23.8017	42.3000	2.0567
23.8300	39.1000	1.9774
23.8582	43.0000	2.0736
23.8865	37.4000	1.9339
23.9148	40.0000	2.0000
23.9430	35.6000	1.8868
23.9713	42.1000	2.0518
23.9996	38.8000	1.9698
24.0278	39.9000	1.9975
24.0561	36.5000	1.9105
24.0844	37.0000	1.9235
24.1126	38.3000	1.9570
24.1409	37.5000	1.9365
24.1692	35.5000	1.8841
24.1974	36.6000	1.9131
24.2257	36.9000	1.9209
24.2540	37.7000	1.9416
24.2822	36.7000	1.9157
24.3105	41.9000	2.0469
24.3388	39.1000	1.9774
24.3670	36.0000	1.8974
24.3953	38.6000	1.9647
24.4236	33.0000	1.8166
24.4518	35.6000	1.8868
24.4801	36.0000	1.8974
24.5084	39.6000	1.9900
24.5366	34.8000	1.8655
24.5649	38.8000	1.9698
24.5932	41.4000	2.0347
24.6214	38.9000	1.9723
24.6497	37.2000	1.9287
24.6780	37.7000	1.9416
24.7062	38.8000	1.9698
24.7345	36.4000	1.9079
24.7627	32.2000	1.7944
24.7910	38.9000	1.9723
24.8193	36.4000	1.9079
24.8475	36.9000	1.9209
24.8758	40.9000	2.0224
24.9041	38.7000	1.9672
24.9323	35.1000	1.8735
24.9606	39.3000	1.9824
24.9889	37.1000	1.9261
25.0171	35.6000	1.8868
25.0454	34.8000	1.8655
25.0737	36.5000	1.9105
25.1019	37.1000	1.9261
25.1302	35.6190	1.8418
25.1585	33.6190	1.7894
25.1867	36.6667	1.8687
25.2150	40.4762	1.9634
25.2433	34.7619	1.8195
25.2715	35.8095	1.8467
25.2998	35.4286	1.8369
25.3281	40.2857	1.9588
25.3563	36.7619	1.8711
25.3846	35.9048	1.8492
25.4129	37.0476	1.8784
25.4411	40.8571	1.9726
25.4694	36.5714	1.8663
25.4977	32.6667	1.7638
25.5259	36.5714	1.8663
25.5542	39.3333	1.9355
25.5824	37.9048	1.9000
25.6107	35.2381	1.8319
25.6390	39.3333	1.9355
25.6672	32.7619	1.7664
25.6955	34.7619	1.8195
25.7238	38.4545	1.8697
25.7520	35.0909	1.7861
25.7803	33.3636	1.7416
25.8086	36.8182	1.8295
25.8368	35.0909	1.7861
25.8651	33.2727	1.7392
25.8934	37.7273	1.8520
25.9216	40.1818	1.9113
25.9499	34.8182	1.7791
25.9782	36.2727	1.8159
26.0064	32.2727	1.7129
26.0347	32.1818	1.7104
26.0630	32.3636	1.7153
26.0912	36.7273	1.8273
26.1195	32.0909	1.7080
26.1478	35.5455	1.7976
26.1760	36.7273	1.8273
26.2043	35.7273	1.8022
26.2326	33.7273	1.7510
26.2608	33.0909	1.7344
26.2891	31.6364	1.6959
26.3174	34.7273	1.7768
26.3456	34.1818	1.7628
26.3739	35.9091	1.8068
26.4021	37.0000	1.8340
26.4304	35.0909	1.7861
26.4587	34.7273	1.7768
26.4869	33.1818	1.7368
26.5152	33.0000	1.7321
26.5435	33.1818	1.7368
26.5717	32.8182	1.7273
26.6000	36.4545	1.8205
26.6283	36.0000	1.8091
26.6565	33.0909	1.7344
26.6848	32.7273	1.7249
26.7131	35.6364	1.7999
26.7413	34.4545	1.7698
26.7696	35.1818	1.7884
26.7979	33.7273	1.7510
26.8261	32.2727	1.7129
26.8544	34.0000	1.7581
26.8827	35.0909	1.7861
26.9109	32.0000	1.7056
26.9392	33.6364	1.7487
26.9675	29.0909	1.6262
26.9957	33.9091	1.7557
27.0240	35.1818	1.7884
27.0523	34.6364	1.7745
27.0805	36.0000	1.8091
27.1088	35.7273	1.8022
27.1371	31.0000	1.6787
27.1653	35.4545	1.7953
27.1936	34.0000	1.7581
27.2219	31.0000	1.6787
27.2501	36.8182	1.8295
27.2784	31.8182	1.7008
27.3066	39.4545	1.8939
27.3349	32.0000	1.7056
27.3632	34.4545	1.7698
27.3914	34.8182	1.7791
27.4197	34.6364	1.7745
27.4480	36.4545	1.8205
27.4762	33.1818	1.7368
27.5045	36.2727	1.8159
27.5328	33.9091	1.7557
27.5610	28.6364	1.6135
27.5893	33.3636	1.7416
27.6176	32.3636	1.7153
27.6458	32.8182	1.7273
27.6741	30.7273	1.6713
27.7024	32.9091	1.7297
27.7306	32.8182	1.7273
27.7589	32.6364	1.7225
27.7872	31.7273	1.6983
27.8154	36.0909	1.8114
27.8437	35.5455	1.7976
27.8720	33.5455	1.7463
27.9002	33.5455	1.7463
27.9285	34.0000	1.7581
27.9568	34.6364	1.7745
27.9850	27.4545	1.5798
28.0133	32.2727	1.7129
28.0416	34.2727	1.7651
28.0698	32.0000	1.7056
28.0981	31.6364	1.6959
28.1263	28.0000	1.5954
28.1546	33.3636	1.7416
28.1829	34.1818	1.7628
28.2111	33.5455	1.7463
28.2394	29.5455	1.6389
28.2677	33.5455	1.7463
28.2959	33.7273	1.7510
28.3242	31.6364	1.6959
28.3525	29.0000	1.6237
28.3807	28.8182	1.6186
28.4090	31.8182	1.7008
28.4373	32.8182	1.7273
28.4655	31.5455	1.6934
28.4938	33.1818	1.7368
28.5221	31.1818	1.6837
28.5503	31.9091	1.7032
28.5786	30.4545	1.6639
28.6069	31.2727	1.6861
28.6351	33.0000	1.7321
28.6634	29.4545	1.6364
28.6917	32.3636	1.7153
28.7199	32.5455	1.7201
28.7482	30.5455	1.6664
28.7765	31.3636	1.6886
28.8047	28.2727	1.6032
28.8330	30.7273	1.6713
28.8613	30.7273	1.6713
28.8895	32.5455	1.7201
28.9178	31.9091	1.7032
28.9461	32.0000	1.7056
28.9743	30.0000	1.6514
29.0026	30.6364	1.6689
29.0308	34.1818	1.7628
29.0591	29.1818	1.6288
29.0874	28.5455	1.6109
29.1156	30.0909	1.6539
29.1439	28.9091	1.6211
29.1722	28.9091	1.6211
29.2004	29.8182	1.6464
29.2287	31.7273	1.6983
29.2570	30.4545	1.6639
29.2852	29.9091	1.6489
29.3135	33.4545	1.7439
29.3418	32.0909	1.7080
29.3700	33.0000	1.7321
29.3983	32.4545	1.7177
29.4266	29.0909	1.6262
29.4548	33.6364	1.7487
29.4831	27.0435	1.5335
29.5114	29.3913	1.5987
29.5396	28.3478	1.5700
29.5679	31.9130	1.6658
29.5962	29.4783	1.6010
29.6244	28.0000	1.5604
29.6527	28.6087	1.5772
29.6810	29.6522	1.6058
29.7092	32.3478	1.6772
29.7375	30.2609	1.6222
29.7658	33.7391	1.7128
29.7940	29.5652	1.6034
29.8223	29.7391	1.6081
29.8505	28.9565	1.5868
29.8788	30.6087	1.6314
29.9071	31.7391	1.6613
29.9353	29.8261	1.6105
29.9636	30.5217	1.6291
29.9919	32.0870	1.6704
30.0201	26.7826	1.5261
30.0484	28.7826	1.5820
30.0767	30.9565	1.6407
30.1049	28.9565	1.5868
30.1332	30.7500	1.6008
30.1615	29.5000	1.5679
30.1897	29.6667	1.5723
30.2180	29.6667	1.5723
30.2463	31.8333	1.6287
30.2745	28.0000	1.5275
30.3028	28.2500	1.5343
30.3311	29.0833	1.5568
30.3593	28.5833	1.5434
30.3876	29.7500	1.5745
30.4159	26.5000	1.4860
30.4441	30.5833	1.5964
30.4724	28.4167	1.5388
30.5007	29.6667	1.5723
30.5289	30.0000	1.5811
30.5572	30.6667	1.5986
30.5855	30.8333	1.6029
30.6137	26.5000	1.4860
30.6420	28.9167	1.5523
30.6702	29.4167	1.5657
30.6985	27.3333	1.5092
30.7268	28.3333	1.5366
30.7550	27.2500	1.5069
30.7833	28.4167	1.5388
30.8116	27.4167	1.5115
30.8398	28.8333	1.5501
30.8681	29.0833	1.5568
30.8964	26.7500	1.4930
30.9246	26.4167	1.4837
30.9529	28.1667	1.5321
30.9812	28.0833	1.5298
31.0094	29.3333	1.5635
31.0377	28.7500	1.5478
31.0660	25.7500	1.4649
31.0942	30.6667	1.5986
31.1225	29.6667	1.5723
31.1508	28.3333	1.5366
31.1790	30.0000	1.5811
31.2073	28.6667	1.5456
31.2356	25.7500	1.4649
31.2638	29.0000	1.5546
31.2921	28.0000	1.5275
31.3204	28.1667	1.5321
31.3486	27.5833	1.5161
31.3769	27.2500	1.5069
31.4052	28.6667	1.5456
31.4334	29.1667	1.5590
31.4617	31.9167	1.6309
31.4900	30.6667	1.5986
31.5182	27.6667	1.5184
31.5465	27.5833	1.5161
31.5747	27.1667	1.5046
31.6030	29.3333	1.5635
31.6313	28.6667	1.5456
31.6595	25.9167	1.4696
31.6878	26.2500	1.4790
31.7161	28.5000	1.5411
31.7443	28.9167	1.5523
31.7726	29.0000	1.5546
31.8009	27.0833	1.5023
31.8291	30.0000	1.5811
31.8574	26.4167	1.4837
31.8857	27.0833	1.5023
31.9139	27.5833	1.5161
31.9422	27.5000	1.5138
31.9705	28.3333	1.5366
31.9987	28.4167	1.5388
32.0270	28.5833	1.5434
32.0553	28.1667	1.5321
32.0835	28.1667	1.5321
32.1118	28.9167	1.5523
32.1401	28.8333	1.5501
32.1683	30.1667	1.5855
32.1966	26.0000	1.4720
32.2249	29.9167	1.5789
32.2531	27.7500	1.5207
32.2814	24.6667	1.4337
32.3097	28.2500	1.5343
32.3379	27.8333	1.5230
32.3662	29.9167	1.5789
32.3944	26.4167	1.4837
32.4227	29.6667	1.5723
32.4510	26.3333	1.4814
32.4792	24.3333	1.4240
32.5075	27.0833	1.5023
32.5358	29.1667	1.5590
32.5640	26.0000	1.4720
32.5923	27.2500	1.5069
32.6206	27.4167	1.5115
32.6488	27.6667	1.5184
32.6771	29.4167	1.5657
32.7054	26.8333	1.4954
32.7336	26.2500	1.4790
32.7619	27.2500	1.5069
32.7902	26.3333	1.4814
32.8184	28.0000	1.5275
32.8467	26.2500	1.4790
32.8750	25.6667	1.4625
32.9032	27.0000	1.5000
32.9315	26.9167	1.4977
32.9598	27.0000	1.5000
32.9880	26.7500	1.4930
33.0163	28.2500	1.5343
33.0446	25.2500	1.4506
33.0728	25.8333	1.4672
33.1011	28.5833	1.5434
33.1294	25.7500	1.4649
33.1576	25.0000	1.4434
33.1859	26.4167	1.4837
33.2142	28.0000	1.5275
33.2424	26.0000	1.4720
33.2707	27.5000	1.5138
33.2989	26.1667	1.4767
33.3272	26.4167	1.4837
33.3555	22.9167	1.3819
33.3837	27.4167	1.5115
33.4120	24.7500	1.4361
33.4403	25.7500	1.4649
33.4685	24.5833	1.4313
33.4968	24.5000	1.4289
33.5251	29.0000	1.5546
33.5533	25.5000	1.4577
33.5816	24.5833	1.4313
33.6099	27.4167	1.5115
33.6381	26.7500	1.4930
33.6664	25.0833	1.4458
33.6947	23.9167	1.4118
33.7229	25.4167	1.4554
33.7512	27.5000	1.5138
33.7795	23.2500	1.3919
33.8077	25.5000	1.4577
33.8360	27.0833	1.5023
33.8643	24.1600	1.3903
33.8925	26.0800	1.4444
33.9208	28.0800	1.4988
33.9491	27.0400	1.4708
33.9773	26.0000	1.4422
34.0056	23.3600	1.3670
34.0339	24.0800	1.3879
34.0621	28.3200	1.5052
34.0904	23.9200	1.3833
34.1186	26.5600	1.4577
34.1469	28.0000	1.4967
34.1752	25.7600	1.4355
34.2034	28.8000	1.5179
34.2317	27.2800	1.4773
34.2600	26.2400	1.4489
34.2882	22.4800	1.3410
34.3165	26.3200	1.4511
34.3448	25.8400	1.4378
34.3730	25.5200	1.4288
34.4013	28.2400	1.5031
34.4296	23.5200	1.3717
34.4578	27.0400	1.4708
34.4861	25.6800	1.4333
34.5144	29.2000	1.5284
34.5426	25.3600	1.4244
34.5709	25.9231	1.4121
34.5992	25.7692	1.4079
34.6274	25.3077	1.3953
34.6557	23.1538	1.3346
34.6840	21.0769	1.2733
34.7122	26.5385	1.4288
34.7405	23.6923	1.3500
34.7688	25.7692	1.4079
34.7970	26.1538	1.4184
34.8253	24.8462	1.3825
34.8536	27.2308	1.4473
34.8818	23.1538	1.3346
34.9101	26.5385	1.4288
34.9383	26.6923	1.4329
34.9666	25.0000	1.3868
34.9949	26.0769	1.4163
35.0231	25.0769	1.3889
35.0514	26.0000	1.4142
35.0797	28.0000	1.4676
35.1079	26.6154	1.4309
35.1362	24.8462	1.3825
35.1645	26.3846	1.4246
35.1927	23.6154	1.3478
35.2210	29.5385	1.5074
35.2493	25.6154	1.4037
35.2775	26.0769	1.4163
35.3058	25.9231	1.4121
35.3341	26.5385	1.4288
35.3623	26.2308	1.4205
35.3906	24.1538	1.3631
35.4189	25.9231	1.4121
35.4471	27.6923	1.4595
35.4754	30.4615	1.5307
35.5037	24.6923	1.3782
35.5319	24.2308	1.3652
35.5602	26.1538	1.4184
35.5885	28.6923	1.4856
35.6167	26.6923	1.4329
35.6450	25.5385	1.4016
35.6733	23.5385	1.3456
35.7015	28.2308	1.4736
35.7298	27.5385	1.4555
35.7581	25.9231	1.4121
35.7863	26.0000	1.4142
35.8146	26.4615	1.4267
35.8428	26.9231	1.4391
35.8711	24.7692	1.3803
35.8994	25.9231	1.4121
35.9276	27.4615	1.4534
35.9559	26.3077	1.4226
35.9842	26.0769	1.4163
36.0124	30.0769	1.5211
36.0407	25.2308	1.3931
36.0690	25.3077	1.3953
36.0972	25.2308	1.3931
36.1255	25.1538	1.3910
36.1538	26.3846	1.4246
36.1820	27.0000	1.4412
36.2103	26.1538	1.4184
36.2386	24.5385	1.3739
36.2668	23.3077	1.3390
36.2951	27.6923	1.4595
36.3234	26.0000	1.4142
36.3516	28.9231	1.4916
36.3799	26.3077	1.4226
36.4082	25.3846	1.3974
36.4364	24.1538	1.3631
36.4647	28.8462	1.4896
36.4930	26.6154	1.4309
36.5212	26.4615	1.4267
36.5495	28.3077	1.4756
36.5778	25.2308	1.3931
36.6060	28.3077	1.4756
36.6343	25.5385	1.4016
36.6625	27.3846	1.4514
36.6908	26.5385	1.4288
36.7191	28.1538	1.4716
36.7473	28.4615	1.4796
36.7756	25.9231	1.4121
36.8039	24.5385	1.3739
36.8321	27.0000	1.4412
36.8604	29.0000	1.4936
36.8887	26.4615	1.4267
36.9169	24.3077	1.3674
36.9452	27.0769	1.4432
36.9735	27.7692	1.4615
37.0017	26.5385	1.4288
37.0300	27.6923	1.4595
37.0583	27.8462	1.4636
37.0865	26.4615	1.4267
37.1148	26.0769	1.4163
37.1431	26.0769	1.4163
37.1713	25.0000	1.3868
37.1996	26.1538	1.4184
37.2279	25.7692	1.4079
37.2561	24.1538	1.3631
37.2844	26.0000	1.4142
37.3127	25.3846	1.3974
37.3409	26.8462	1.4370
37.3692	25.8462	1.4100
37.3975	25.4615	1.3995
37.4257	27.3077	1.4493
37.4540	26.0769	1.4163
37.4823	27.1538	1.4453
37.5105	27.0769	1.4432
37.5388	27.0769	1.4432
37.5670	23.1538	1.3346
37.5953	27.3077	1.4493
37.6236	25.1538	1.3910
37.6518	27.9231	1.4656
37.6801	27.5385	1.4555
37.7084	25.4615	1.3995
37.7366	29.2308	1.4995
37.7649	29.0769	1.4956
37.7932	27.0000	1.4412
37.8214	28.6923	1.4856
37.8497	30.0000	1.5191
37.8780	29.8462	1.5152
37.9062	31.0769	1.5461
37.9345	31.0769	1.5461
37.9628	34.3846	1.6263
37.9910	32.0769	1.5708
38.0193	32.4615	1.5802
38.0476	31.7692	1.5633
38.0758	33.6923	1.6099
38.1041	35.1538	1.6444
38.1324	33.3846	1.6025
38.1606	37.0000	1.6871
38.1889	36.0769	1.6659
38.2172	40.6923	1.7692
38.2454	37.8519	1.6745
38.2737	36.5926	1.6464
38.3020	39.3333	1.7069
38.3302	41.7037	1.7576
38.3585	40.7407	1.7372
38.3867	46.5185	1.8563
38.4150	47.3333	1.8725
38.4433	50.4444	1.9330
38.4715	52.2963	1.9682
38.4998	52.7407	1.9765
38.5281	56.2222	2.0407
38.5563	54.3704	2.0068
38.5846	66.2963	2.2160
38.6129	68.1481	2.2468
38.6411	76.6667	2.3831
38.6694	80.7407	2.4456
38.6977	86.7407	2.5348
38.7259	91.7037	2.6063
38.7542	105.8519	2.8002
38.7825	103.7778	2.7726
38.8107	114.2222	2.9088
38.8390	129.5556	3.0979
38.8673	132.7407	3.1357
38.8955	151.2593	3.3473
38.9238	156.7407	3.4074
38.9521	171.2593	3.5617
38.9803	174.4444	3.5947
39.0086	183.6429	3.6218
39.0369	199.2143	3.7722
39.0651	216.2143	3.9299
39.0934	224.1429	4.0013
39.1217	236.2857	4.1082
39.1499	243.7857	4.1729
39.1782	253.7143	4.2570
39.2064	256.2857	4.2786
39.2347	252.5000	4.2468
39.2630	261.7857	4.3242
39.2912	269.8571	4.3904
39.3195	273.8571	4.4228
39.3478	267.0000	4.3671
39.3760	261.1429	4.3189
39.4043	271.8571	4.4066
39.4326	275.4286	4.4355
39.4608	263.5714	4.3390
39.4891	266.5000	4.3630
39.5174	266.8571	4.3659
39.5456	268.2857	4.3776
39.5739	260.3571	4.3124
39.6022	251.1429	4.2354
39.6304	259.5000	4.3053
39.6587	256.2857	4.2786
39.6870	251.0000	4.2342
39.7152	262.3571	4.3289
39.7435	257.2143	4.2863
39.7718	259.8571	4.3083
39.8000	249.1429	4.2185
39.8283	258.9286	4.3006
39.8566	264.0000	4.3425
39.8848	258.2857	4.2952
39.9131	260.7143	4.3154
39.9414	249.0000	4.2173
39.9696	252.2143	4.2444
39.9979	250.2857	4.2282
40.0262	253.7857	4.2576
40.0544	264.4286	4.3460
40.0827	269.2857	4.3857
40.1109	286.0000	4.5198
40.1392	301.7143	4.6423
40.1675	322.7143	4.8011
40.1957	337.0714	4.9068
40.2240	325.7857	4.8239
40.2523	307.6429	4.6877
40.2805	296.9286	4.6053
40.3088	261.0000	4.3177
40.3371	225.2857	4.0115
40.3653	196.3571	3.7451
40.3936	159.5000	3.3753
40.4219	134.1429	3.0954
40.4501	114.4286	2.8589
40.4784	96.7857	2.6293
40.5067	89.7143	2.5314
40.5349	75.5000	2.3223
40.5632	64.0714	2.1393
40.5915	64.6429	2.1488
40.6197	56.2143	2.0038
40.6480	53.2857	1.9509
40.6763	51.5000	1.9180
40.7045	44.4286	1.7814
40.7328	44.5000	1.7829
40.7611	42.5714	1.7438
40.7893	40.5000	1.7008
40.8176	39.7857	1.6858
40.8459	39.3571	1.6767
40.8741	34.4286	1.5682
40.9024	35.2857	1.5876
40.9306	37.8571	1.6444
40.9589	31.5714	1.5017
40.9872	30.9286	1.4863
41.0154	28.9286	1.4375
41.0437	29.3571	1.4481
41.0720	31.6429	1.5034
41.1002	28.8571	1.4357
41.1285	31.3571	1.4966
41.1568	28.5000	1.4268
41.1850	27.7143	1.4070
41.2133	26.5714	1.3777
41.2416	27.0714	1.3906
41.2698	27.8571	1.4106
41.2981	28.2857	1.4214
41.3264	28.2143	1.4196
41.3546	26.8571	1.3851
41.3829	27.0714	1.3906
41.4112	26.4286	1.3740
41.4394	25.2143	1.3420
41.4677	24.8571	1.3325
41.4960	28.5000	1.4268
41.5242	26.9286	1.3869
41.5525	26.0714	1.3646
41.5808	23.9286	1.3074
41.6090	26.0000	1.3628
41.6373	26.8571	1.3851
41.6656	25.7857	1.3571
41.6938	26.3571	1.3721
41.7221	23.9286	1.3074
41.7504	27.4286	1.3997
41.7786	25.8571	1.3590
41.8069	25.7143	1.3553
41.8351	27.6429	1.4052
41.8634	27.5000	1.4015
41.8917	23.4286	1.2936
41.9199	22.5714	1.2697
41.9482	22.0714	1.2556
41.9765	24.4286	1.3209
42.0047	23.4286	1.2936
42.0330	23.2857	1.2897
42.0613	25.9286	1.3609
42.0895	23.0000	1.2817
42.1178	23.8571	1.3054
42.1461	24.5000	1.3229
42.1743	27.0000	1.3887
42.2026	24.0714	1.3113
42.2309	20.9286	1.2227
42.2591	24.1429	1.3132
42.2874	25.5714	1.3515
42.3157	25.5000	1.3496
42.3439	27.8571	1.4106
42.3722	24.7857	1.3306
42.4005	24.6429	1.3267
42.4287	23.4286	1.2936
42.4570	25.5000	1.3496
42.4853	26.2143	1.3684
42.5135	25.9286	1.3609
42.5418	24.3571	1.3190
42.5701	23.2143	1.2877
42.5983	27.4483	1.3759
42.6266	23.7931	1.2810
42.6548	26.7586	1.3585
42.6831	24.4828	1.2994
42.7114	28.0690	1.3913
42.7396	25.5172	1.3266
42.7679	22.8276	1.2547
42.7962	25.7241	1.3319
42.8244	23.6552	1.2773
42.8527	24.0690	1.2884
42.8810	21.7241	1.2240
42.9092	25.3793	1.3230
42.9375	24.6897	1.3049
42.9658	21.7931	1.2260
42.9940	24.4828	1.2994
43.0223	23.1724	1.2642
43.0506	21.3793	1.2143
43.0788	20.9655	1.2025
43.1071	22.4828	1.2452
43.1354	21.5862	1.2201
43.1636	20.2759	1.1825
43.1919	24.0690	1.2884
43.2202	21.8621	1.2279
43.2484	22.2069	1.2375
43.2767	22.9655	1.2585
43.3050	22.4828	1.2452
43.3332	21.7931	1.2260
43.3615	23.4483	1.2717
43.3898	22.6207	1.2490
43.4180	22.2667	1.2184
43.4463	22.4667	1.2238
43.4745	21.6000	1.2000
43.5028	20.1333	1.1585
43.5311	19.7333	1.1470
43.5593	20.8667	1.1795
43.5876	21.1333	1.1870
43.6159	21.2000	1.1888
43.6441	19.5333	1.1411
43.6724	19.0667	1.1274
43.7007	20.8667	1.1795
43.7289	21.8667	1.2074
43.7572	18.8667	1.1215
43.7855	20.0000	1.1547
43.8137	19.0000	1.1255
43.8420	20.8000	1.1776
43.8703	22.0000	1.2111
43.8985	20.6000	1.1719
43.9268	18.9333	1.1235
43.9551	20.2000	1.1605
43.9833	21.2000	1.1888
44.0116	21.2667	1.1907
44.0399	22.6000	1.2275
44.0681	19.0000	1.1255
44.0964	21.4667	1.1963
44.1247	20.0667	1.1566
44.1529	16.1333	1.0371
44.1812	18.6000	1.1136
44.2095	18.0000	1.0954
44.2377	20.6000	1.1719
44.2660	18.8000	1.1195
44.2943	18.2667	1.1035
44.3225	19.9333	1.1528
44.3508	20.2667	1.1624
44.3790	18.4000	1.1075
44.4073	19.4667	1.1392
44.4356	17.8667	1.0914
44.4638	19.0000	1.1255
44.4921	18.8000	1.1195
44.5204	20.3333	1.1643
44.5486	19.2000	1.1314
44.5769	18.8667	1.1215
44.6052	18.6667	1.1155
44.6334	21.8667	1.2074
44.6617	21.6000	1.2000
44.6900	19.2667	1.1333
44.7182	19.1333	1.1294
44.7465	18.4000	1.1075
44.7748	17.1333	1.0687
44.8030	19.0000	1.1255
44.8313	16.2667	1.0414
44.8596	18.3333	1.1055
44.8878	16.2000	1.0392
44.9161	19.7333	1.1470
44.9444	19.6667	1.1450
44.9726	17.0000	1.0646
45.0009	19.6667	1.1450
45.0292	17.9333	1.0934
45.0574	17.2000	1.0708
45.0857	18.3333	1.1055
45.1140	18.0000	1.0954
45.1422	19.6000	1.1431
45.1705	19.2000	1.1314
45.1987	18.9333	1.1235
45.2270	22.3333	1.2202
45.2553	16.8667	1.0604
45.2835	16.2000	1.0392
45.3118	17.6667	1.0853
45.3401	18.4667	1.1096
45.3683	18.4667	1.1096
45.3966	19.4000	1.1372
45.4249	18.2000	1.1015
45.4531	18.8000	1.1195
45.4814	20.0000	1.1547
45.5097	17.4667	1.0791
45.5379	17.0667	1.0667
45.5662	17.7333	1.0873
45.5945	16.7333	1.0562
45.6227	15.1333	1.0044
45.6510	19.9333	1.1528
45.6793	17.2000	1.0708
45.7075	18.9333	1.1235
45.7358	17.8000	1.0893
45.7641	17.1333	1.0687
45.7923	18.2667	1.1035
45.8206	18.4667	1.1096
45.8489	17.8667	1.0914
45.8771	18.0667	1.0975
45.9054	17.8000	1.0893
45.9337	17.2000	1.0708
45.9619	17.4000	1.0770
45.9902	16.9333	1.0625
46.0184	17.1333	1.0687
46.0467	17.2667	1.0729
46.0750	16.4000	1.0456
46.1032	17.5333	1.0812
46.1315	16.4000	1.0456
46.1598	17.8667	1.0914
46.1880	16.7333	1.0562
46.2163	16.7333	1.0562
46.2446	16.7333	1.0562
46.2728	17.6667	1.0853
46.3011	18.2000	1.1015
46.3294	19.7333	1.1470
46.3576	17.3333	1.0750
46.3859	17.7333	1.0873
46.4142	19.7333	1.1470
46.4424	17.8667	1.0914
46.4707	18.6000	1.1136
46.4990	15.7333	1.0242
46.5272	16.8000	1.0583
46.5555	14.6667	0.9888
46.5838	18.2581	1.0853
46.6120	16.5161	1.0323
46.6403	18.2581	1.0853
46.6686	17.2258	1.0542
46.6968	19.8710	1.1323
46.7251	17.7419	1.0699
46.7534	16.9032	1.0443
46.7816	16.3871	1.0282
46.8099	16.6452	1.0363
46.8382	17.8710	1.0738
46.8664	15.6774	1.0057
46.8947	16.5806	1.0343
46.9229	18.1290	1.0815
46.9512	13.8065	0.9438
46.9795	16.6452	1.0363
47.0077	16.0645	1.0180
47.0360	15.5484	1.0016
47.0643	16.9677	1.0463
47.0925	16.0645	1.0180
47.1208	16.7742	1.0403
47.1491	17.6129	1.0660
47.1773	15.2258	0.9911
47.2056	17.8710	1.0738
47.2339	15.9355	1.0140
47.2621	14.0000	0.9504
47.2904	16.9677	1.0463
47.3187	17.2903	1.0562
47.3469	18.2581	1.0853
47.3752	18.2581	1.0853
47.4035	16.2581	1.0242
47.4317	14.7742	0.9763
47.4600	16.6250	1.0193
47.4883	17.5625	1.0477
47.5165	18.1875	1.0662
47.5448	14.9375	0.9662
47.5731	15.8750	0.9961
47.6013	16.6875	1.0213
47.6296	16.6250	1.0193
47.6579	17.8125	1.0551
47.6861	15.8125	0.9941
47.7144	16.7500	1.0232
47.7426	16.1875	1.0058
47.7709	15.4375	0.9823
47.7992	15.6250	0.9882
47.8274	16.5625	1.0174
47.8557	14.5000	0.9520
47.8840	15.5625	0.9862
47.9122	16.2500	1.0078
47.9405	16.5000	1.0155
47.9688	16.4375	1.0136
47.9970	17.1875	1.0364
48.0253	16.8125	1.0251
48.0536	16.0000	1.0000
48.0818	18.3750	1.0717
48.1101	14.6875	0.9581
48.1384	16.8750	1.0270
48.1666	15.5625	0.9862
48.1949	16.2500	1.0078
48.2232	15.6875	0.9902
48.2514	15.8125	0.9941
48.2797	17.6875	1.0514
48.3080	16.1875	1.0058
48.3362	15.6875	0.9902
48.3645	16.3125	1.0097
48.3928	15.8125	0.9941
48.4210	19.7500	1.1110
48.4493	15.6875	0.9902
48.4776	14.1250	0.9396
48.5058	12.8750	0.8970
48.5341	15.0625	0.9703
48.5624	16.6250	1.0193
48.5906	15.3125	0.9783
48.6189	15.5625	0.9862
48.6471	16.0000	1.0000
48.6754	15.0000	0.9682
48.7037	17.1875	1.0364
48.7319	15.0625	0.9703
48.7602	15.7500	0.9922
48.7885	15.5000	0.9843
48.8167	16.0625	1.0020
48.8450	13.6875	0.9249
48.8733	16.6250	1.0193
48.9015	15.1250	0.9723
48.9298	17.3750	1.0421
48.9581	16.6250	1.0193
48.9863	16.9375	1.0289
49.0146	15.5000	0.9843
49.0429	15.8750	0.9961
49.0711	14.8125	0.9622
49.0994	14.8125	0.9622
49.1277	15.8750	0.9961
49.1559	14.6875	0.9581
49.1842	16.7500	1.0232
49.2125	14.5000	0.9520
49.2407	15.8750	0.9961
49.2690	14.6250	0.9561
49.2973	15.3750	0.9803
49.3255	14.9375	0.9662
49.3538	17.0625	1.0327
49.3821	16.3750	1.0117
49.4103	15.5625	0.9862
49.4386	14.6250	0.9561
49.4668	15.8750	0.9961
49.4951	14.8750	0.9642
49.5234	15.1875	0.9743
49.5516	15.1250	0.9723
49.5799	15.4375	0.9823
49.6082	14.5000	0.9520
49.6364	13.5000	0.9186
49.6647	16.3125	1.0097
49.6930	14.5000	0.9520
49.7212	13.9375	0.9333
49.7495	16.5000	1.0155
49.7778	14.8750	0.9642
49.8060	15.8125	0.9941
49.8343	14.8750	0.9642
49.8626	14.5000	0.9520
49.8908	14.4375	0.9499
49.9191	16.7500	1.0232
49.9474	14.8750	0.9642
49.9756	15.6250	0.9882
50.0039	16.2500	1.0078
50.0322	16.9375	1.0289
50.0604	15.0625	0.9703
50.0887	15.4375	0.9823
50.1170	13.6875	0.9249
50.1452	17.0000	1.0308
50.1735	15.0000	0.9682
50.2018	13.9375	0.9333
50.2300	14.5625	0.9540
50.2583	13.8750	0.9312
50.2865	15.6875	0.9902
50.3148	14.6875	0.9581
50.3431	13.7500	0.9270
50.3713	15.3750	0.9803
50.3996	16.2500	1.0078
50.4279	15.3125	0.9783
50.4561	15.9375	0.9980
50.4844	13.6875	0.9249
50.5127	15.3125	0.9783
50.5409	16.3030	0.9940
50.5692	16.0606	0.9866
50.5975	15.8182	0.9791
50.6257	14.8485	0.9486
50.6540	15.4545	0.9678
50.6823	16.5455	1.0014
50.7105	15.0909	0.9563
50.7388	14.1818	0.9271
50.7671	13.5758	0.9071
50.7953	13.3333	0.8989
50.8236	16.4242	0.9977
50.8519	13.9394	0.9191
50.8801	13.9394	0.9191
50.9084	14.3636	0.9330
50.9367	14.4242	0.9350
50.9649	14.8485	0.9486
50.9932	14.9697	0.9525
51.0215	16.0000	0.9847
51.0497	15.3939	0.9659
51.0780	14.3636	0.9330
51.1063	15.3939	0.9659
51.1345	14.7879	0.9467
51.1628	15.0909	0.9563
51.1910	16.7273	1.0069
51.2193	14.7273	0.9448
51.2476	14.4242	0.9350
51.2758	13.7576	0.9131
51.3041	14.4848	0.9369
51.3324	15.6970	0.9754
51.3606	15.1515	0.9583
51.3889	13.5758	0.9071
51.4172	15.8182	0.9791
51.4454	14.0000	0.9211
51.4737	15.1176	0.9430
51.5020	14.9412	0.9375
51.5302	14.5882	0.9264
51.5585	14.7647	0.9319
51.5868	13.7647	0.8998
51.6150	14.5294	0.9245
51.6433	14.7059	0.9301
51.6716	13.2353	0.8824
51.6998	14.3529	0.9189
51.7281	14.9412	0.9375
51.7564	13.7647	0.8998
51.7846	15.5294	0.9558
51.8129	15.4706	0.9540
51.8412	16.3529	0.9808
51.8694	15.7059	0.9612
51.8977	15.4706	0.9540
51.9260	14.7059	0.9301
51.9542	13.9412	0.9056
51.9825	15.4706	0.9540
52.0107	15.2353	0.9467
52.0390	15.8824	0.9666
52.0673	16.1765	0.9755
52.0955	14.5294	0.9245
52.1238	13.7059	0.8979
52.1521	14.6471	0.9282
52.1803	14.4706	0.9226
52.2086	15.7059	0.9612
52.2369	15.5294	0.9558
52.2651	14.5882	0.9264
52.2934	13.1176	0.8784
52.3217	13.7647	0.8998
52.3499	14.0000	0.9075
52.3782	15.1765	0.9448
52.4065	13.8824	0.9037
52.4347	15.1765	0.9448
52.4630	15.7059	0.9612
52.4913	13.4118	0.8882
52.5195	12.4118	0.8545
52.5478	14.1765	0.9132
52.5761	12.5882	0.8605
52.6043	14.2353	0.9151
52.6326	13.8824	0.9037
52.6609	13.0000	0.8745
52.6891	15.4118	0.9521
52.7174	14.5882	0.9264
52.7457	14.5294	0.9245
52.7739	13.7647	0.8998
52.8022	14.5882	0.9264
52.8305	13.5294	0.8921
52.8587	14.5882	0.9264
52.8870	13.1176	0.8784
52.9152	15.4706	0.9540
52.9435	14.5882	0.9264
52.9718	14.2353	0.9151
53.0000	15.1765	0.9448
53.0283	16.7059	0.9913
53.0566	13.1176	0.8784
53.0848	14.5882	0.9264
53.1131	14.4706	0.9226
53.1414	13.5882	0.8940
53.1696	13.8235	0.9017
53.1979	14.9412	0.9375
53.2262	13.0588	0.8765
53.2544	16.1765	0.9755
53.2827	15.0588	0.9412
53.3110	13.8235	0.9017
53.3392	15.3529	0.9503
53.3675	14.9412	0.9375
53.3958	14.2941	0.9170
53.4240	15.0588	0.9412
53.4523	13.4706	0.8902
53.4806	13.4706	0.8902
53.5088	15.1176	0.9430
53.5371	13.8235	0.9017
53.5654	13.0588	0.8765
53.5936	13.2941	0.8843
53.6219	14.4706	0.9226
53.6502	15.4118	0.9521
53.6784	14.7059	0.9301
53.7067	14.0000	0.9075
53.7349	14.8824	0.9356
53.7632	14.0588	0.9094
53.7915	13.2353	0.8824
53.8197	14.4706	0.9226
53.8480	14.2353	0.9151
53.8763	13.9412	0.9056
53.9045	15.2941	0.9485
53.9328	15.3529	0.9503
53.9611	13.3529	0.8863
53.9893	13.8235	0.9017
54.0176	13.5882	0.8940
54.0459	16.7647	0.9931
54.0741	16.1176	0.9737
54.1024	13.1765	0.8804
54.1307	15.2941	0.9485
54.1589	15.6471	0.9594
54.1872	14.3529	0.9189
54.2155	15.0000	0.9393
54.2437	14.9412	0.9375
54.2720	14.2353	0.9151
54.3003	15.5882	0.9576
54.3285	14.3529	0.9189
54.3568	15.3529	0.9503
54.3851	14.5882	0.9264
54.4133	13.8824	0.9037
54.4416	14.7059	0.9301
54.4699	15.6471	0.9594
54.4981	15.1176	0.9430
54.5264	14.6857	0.9161
54.5546	16.4000	0.9681
54.5829	15.2571	0.9337
54.6112	14.2286	0.9017
54.6394	15.8857	0.9528
54.6677	14.6286	0.9143
54.6960	14.4000	0.9071
54.7242	14.6857	0.9161
54.7525	14.7429	0.9179
54.7808	15.6000	0.9442
54.8090	14.8000	0.9196
54.8373	15.8286	0.9510
54.8656	16.0571	0.9579
54.8938	14.9714	0.9249
54.9221	14.9714	0.9249
54.9504	15.5429	0.9424
54.9786	16.1143	0.9596
55.0069	16.1143	0.9596
55.0352	15.2571	0.9337
55.0634	16.8571	0.9815
55.0917	16.0571	0.9579
55.1200	16.5714	0.9731
55.1482	13.7714	0.8871
55.1765	16.2286	0.9630
55.2048	17.7143	1.0061
55.2330	14.9143	0.9232
55.2613	15.3143	0.9355
55.2896	16.8000	0.9798
55.3178	17.4857	0.9996
55.3461	17.6000	1.0029
55.3744	15.5429	0.9424
55.4026	18.0571	1.0158
55.4309	16.0000	0.9562
55.4591	17.0286	0.9864
55.4874	16.9714	0.9848
55.5157	18.3889	1.0107
55.5439	16.8333	0.9670
55.5722	17.6667	0.9907
55.6005	19.1111	1.0304
55.6287	20.7778	1.0744
55.6570	18.8333	1.0229
55.6853	17.5556	0.9876
55.7135	20.7222	1.0730
55.7418	20.5000	1.0672
55.7701	21.5000	1.0929
55.7983	23.0556	1.1318
55.8266	22.3889	1.1153
55.8549	23.0556	1.1318
55.8831	23.3889	1.1399
55.9114	23.3889	1.1399
55.9397	23.6667	1.1467
55.9679	22.7222	1.1235
55.9962	25.5000	1.1902
56.0245	27.5000	1.2360
56.0527	28.5556	1.2595
56.0810	25.9444	1.2006
56.1093	28.8333	1.2656
56.1375	32.8889	1.3517
56.1658	29.7778	1.2862
56.1941	35.2778	1.4000
56.2223	30.8889	1.3100
56.2506	34.3333	1.3811
56.2788	35.8333	1.4109
56.3071	38.7222	1.4667
56.3354	38.2778	1.4583
56.3636	37.2778	1.4391
56.3919	40.7778	1.5051
56.4202	43.1111	1.5476
56.4484	42.3333	1.5336
56.4767	42.2222	1.5316
56.5050	44.3889	1.5704
56.5332	45.2778	1.5860
56.5615	45.5556	1.5909
56.5898	48.3333	1.6387
56.6180	47.6111	1.6264
56.6463	48.8889	1.6480
56.6746	47.2778	1.6207
56.7028	47.2222	1.6197
56.7311	51.2222	1.6869
56.7594	49.8333	1.6639
56.7876	50.4444	1.6741
56.8159	48.1667	1.6358
56.8442	50.7222	1.6787
56.8724	50.1111	1.6685
56.9007	47.3889	1.6226
56.9290	48.2778	1.6377
56.9572	47.5000	1.6245
56.9855	48.5556	1.6424
57.0138	50.1667	1.6694
57.0420	51.1667	1.6860
57.0703	46.9444	1.6149
57.0986	48.5000	1.6415
57.1268	49.0000	1.6499
57.1551	48.5000	1.6415
57.1833	45.3333	1.5870
57.2116	50.1667	1.6694
57.2399	48.0556	1.6339
57.2681	52.7778	1.7123
57.2964	51.9444	1.6988
57.3247	48.8889	1.6480
57.3529	47.5000	1.6245
57.3812	48.2222	1.6368
57.4095	51.0556	1.6842
57.4377	49.8333	1.6639
57.4660	48.6667	1.6443
57.4943	48.9444	1.6490
57.5225	49.3889	1.6565
57.5508	53.1667	1.7186
57.5791	50.8889	1.6814
57.6073	52.1111	1.7015
57.6356	50.8889	1.6814
57.6639	48.2222	1.6368
57.6921	52.7778	1.7123
57.7204	49.7778	1.6630
57.7487	47.2222	1.6197
57.7769	49.5000	1.6583
57.8052	49.5000	1.6583
57.8335	48.1111	1.6349
57.8617	49.4444	1.6574
57.8900	49.1111	1.6518
57.9183	48.9444	1.6490
57.9465	48.0000	1.6330
57.9748	48.8333	1.6471
58.0030	51.0000	1.6833
58.0313	51.2778	1.6878
58.0596	50.6667	1.6777
58.0878	54.7778	1.7445
58.1161	54.7778	1.7445
58.1444	55.0556	1.7489
58.1726	58.6111	1.8045
58.2009	59.7778	1.8224
58.2292	61.8333	1.8534
58.2574	56.5556	1.7726
58.2857	53.6667	1.7267
58.3140	49.3333	1.6555
58.3422	47.3333	1.6216
58.3705	47.4444	1.6235
58.3988	37.9444	1.4519
58.4270	35.8333	1.4109
58.4553	33.2222	1.3586
58.4836	30.1081	1.2757
58.5118	28.6486	1.2444
58.5401	27.3514	1.2159
58.5684	23.4595	1.1261
58.5966	24.9189	1.1606
58.6249	21.9459	1.0892
58.6532	22.9730	1.1144
58.6814	19.4595	1.0256
58.7097	18.4324	0.9982
58.7380	17.7297	0.9790
58.7662	19.0811	1.0156
58.7945	17.1351	0.9624
58.8227	17.8378	0.9819
58.8510	17.1892	0.9639
58.8793	16.8108	0.9533
58.9075	16.3243	0.9394
58.9358	18.0000	0.9864
58.9641	16.5405	0.9456
58.9923	16.2162	0.9362
59.0206	15.6216	0.9189
59.0489	14.6486	0.8898
59.0771	16.8108	0.9533
59.1054	15.5676	0.9173
59.1337	15.0270	0.9013
59.1619	15.8378	0.9253
59.1902	14.6486	0.8898
59.2185	15.8919	0.9268
59.2467	15.0270	0.9013
59.2750	15.5135	0.9157
59.3033	16.8108	0.9533
59.3315	14.7568	0.8931
59.3598	14.7568	0.8931
59.3881	15.6216	0.9189
59.4163	15.9459	0.9284
59.4446	13.8919	0.8666
59.4729	14.0000	0.8699
59.5011	14.5946	0.8882
59.5294	14.6316	0.8775
59.5577	12.9474	0.8255
59.5859	12.0526	0.7965
59.6142	14.5263	0.8744
59.6425	15.4737	0.9024
59.6707	14.3158	0.8680
59.6990	14.1053	0.8616
59.7272	13.7368	0.8503
59.7555	13.1053	0.8305
59.7838	13.7895	0.8519
59.8120	13.7368	0.8503
59.8403	13.3684	0.8388
59.8686	13.1579	0.8322
59.8968	13.1579	0.8322
59.9251	13.3684	0.8388
59.9534	13.7368	0.8503
59.9816	13.8947	0.8552
60.0099	13.3158	0.8372
60.0382	12.8421	0.8221
60.0664	12.5263	0.8120
60.0947	14.0000	0.8584
60.1230	14.1053	0.8616
60.1512	14.2632	0.8664
60.1795	12.7368	0.8188
60.2078	15.6316	0.9070
60.2360	13.8947	0.8552
60.2643	12.8421	0.8221
60.2926	15.0526	0.8901
60.3208	13.6316	0.8470
60.3491	13.3684	0.8388
60.3774	13.8947	0.8552
60.4056	12.6842	0.8171
60.4339	12.9474	0.8255
60.4622	13.5263	0.8437
60.4904	14.2105	0.8648
60.5187	13.3158	0.8372
60.5469	13.3158	0.8372
60.5752	12.3158	0.8051
60.6035	12.0000	0.7947
60.6317	14.3684	0.8696
60.6600	13.2105	0.8338
60.6883	12.8421	0.8221
60.7165	13.1579	0.8322
60.7448	12.5263	0.8120
60.7731	12.7368	0.8188
60.8013	12.8421	0.8221
60.8296	12.5789	0.8137
60.8579	12.7368	0.8188
60.8861	11.5263	0.7789
60.9144	12.8421	0.8221
60.9427	13.6316	0.8470
60.9709	13.0000	0.8272
60.9992	13.5789	0.8454
61.0275	13.2632	0.8355
61.0557	13.3684	0.8388
61.0840	11.6316	0.7824
61.1123	12.0526	0.7965
61.1405	13.4737	0.8421
61.1688	12.7895	0.8204
61.1971	12.6316	0.8154
61.2253	12.2632	0.8034
61.2536	13.4211	0.8405
61.2819	13.6842	0.8487
61.3101	12.3158	0.8051
61.3384	11.7895	0.7877
61.3667	13.1579	0.8322
61.3949	13.8947	0.8552
61.4232	13.2105	0.8338
61.4514	14.0526	0.8600
61.4797	14.0000	0.8584
61.5080	12.7368	0.8188
61.5362	13.0526	0.8288
61.5645	12.2632	0.8034
61.5928	12.5789	0.8137
61.6210	13.6842	0.8487
61.6493	12.3158	0.8051
61.6776	12.4211	0.8085
61.7058	13.1053	0.8305
61.7341	11.4737	0.7771
61.7624	13.1053	0.8305
61.7906	13.5263	0.8437
61.8189	12.1579	0.7999
61.8472	14.0526	0.8600
61.8754	13.0000	0.8272
61.9037	14.5263	0.8744
61.9320	13.4737	0.8421
61.9602	14.0526	0.8600
61.9885	14.3158	0.8680
62.0168	13.5789	0.8454
62.0450	13.2632	0.8355
62.0733	13.4211	0.8405
62.1016	14.5789	0.8760
62.1298	13.6316	0.8470
62.1581	13.7895	0.8519
62.1864	13.7895	0.8519
62.2146	13.4211	0.8405
62.2429	13.8947	0.8552
62.2711	14.5263	0.8744
62.2994	13.5263	0.8437
62.3277	13.4737	0.8421
62.3559	13.1579	0.8322
62.3842	13.2632	0.8355
62.4125	12.3684	0.8068
62.4407	11.2105	0.7681
62.4690	12.0513	0.7861
62.4973	12.1026	0.7878
62.5255	12.0513	0.7861
62.5538	13.7436	0.8395
62.5821	11.2821	0.7606
62.6103	11.8462	0.7794
62.6386	12.0000	0.7845
62.6669	12.9744	0.8157
62.6951	12.8205	0.8108
62.7234	12.5641	0.8027
62.7517	12.5641	0.8027
62.7799	12.1538	0.7895
62.8082	14.3077	0.8566
62.8365	13.3333	0.8269
62.8647	12.6667	0.8060
62.8930	13.1795	0.8221
62.9213	12.3590	0.7961
62.9495	12.1538	0.7895
62.9778	13.1795	0.8221
63.0061	12.2051	0.7911
63.0343	13.2308	0.8237
63.0626	13.5897	0.8348
63.0908	12.2051	0.7911
63.1191	12.7692	0.8092
63.1474	11.4359	0.7658
63.1756	12.0000	0.7845
63.2039	11.3333	0.7624
63.2322	14.0000	0.8473
63.2604	12.5128	0.8011
63.2887	11.7436	0.7760
63.3170	12.4615	0.7994
63.3452	11.4872	0.7675
63.3735	12.5641	0.8027
63.4018	11.9487	0.7828
63.4300	10.8205	0.7449
63.4583	10.2051	0.7234
63.4866	12.4615	0.7994
63.5148	13.2821	0.8253
63.5431	10.6667	0.7396
63.5714	11.8000	0.7681
63.5996	11.5500	0.7599
63.6279	13.5122	0.8119
63.6562	12.5854	0.7835
63.6844	13.8049	0.8206
63.7127	12.1951	0.7713
63.7410	13.0732	0.7986
63.7692	13.2195	0.8030
63.7975	13.7073	0.8177
63.8258	15.0732	0.8575
63.8540	11.2195	0.7398
63.8823	11.6585	0.7541
63.9106	11.5122	0.7494
63.9388	11.9024	0.7620
63.9671	13.8049	0.8206
63.9953	13.3659	0.8075
64.0236	11.7073	0.7557
64.0519	12.7317	0.7881
64.0801	12.0000	0.7651
64.1084	11.3659	0.7446
64.1367	12.9756	0.7956
64.1649	11.4634	0.7478
64.1932	12.4390	0.7790
64.2215	12.4878	0.7805
64.2497	11.5610	0.7510
64.2780	11.0244	0.7333
64.3063	11.9024	0.7620
64.3345	11.6098	0.7525
64.3628	12.1951	0.7713
64.3911	13.3171	0.8060
64.4193	11.7561	0.7573
64.4476	12.5854	0.7835
64.4759	12.6829	0.7866
64.5041	12.8780	0.7926
64.5324	13.1707	0.8015
64.5607	12.5854	0.7835
64.5889	11.9024	0.7620
64.6172	11.7561	0.7573
64.6455	13.1707	0.8015
64.6737	10.0976	0.7018
64.7020	11.8049	0.7588
64.7303	12.2927	0.7744
64.7585	13.1707	0.8015
64.7868	11.3810	0.7362
64.8150	11.1163	0.7191
64.8433	13.3953	0.7893
64.8716	13.3953	0.7893
64.8998	12.2326	0.7543
64.9281	12.9767	0.7769
64.9564	12.4186	0.7600
64.9846	12.9302	0.7755
65.0129	12.6512	0.7671
65.0412	12.2791	0.7557
65.0694	13.1163	0.7811
65.0977	12.0930	0.7500
65.1260	13.0233	0.7783
65.1542	12.3256	0.7572
65.1825	13.1163	0.7811
65.2108	11.7209	0.7383
65.2390	12.4186	0.7600
65.2673	12.1395	0.7514
65.2956	12.0000	0.7471
65.3238	12.0000	0.7471
65.3521	11.2558	0.7236
65.3804	11.5349	0.7325
65.4086	13.6744	0.7975
65.4369	11.0698	0.7175
65.4652	11.1163	0.7191
65.4934	12.6977	0.7685
65.5217	11.8140	0.7413
65.5500	12.2326	0.7543
65.5782	11.4884	0.7310
65.6065	11.3023	0.7250
65.6348	12.6512	0.7671
65.6630	12.5581	0.7643
65.6913	12.0000	0.7471
65.7195	11.5349	0.7325
65.7478	10.8837	0.7115
65.7761	12.0465	0.7485
65.8043	10.7442	0.7069
65.8326	12.4651	0.7614
65.8609	12.2326	0.7543
65.8891	10.7442	0.7069
65.9174	11.4884	0.7310
65.9457	13.2093	0.7838
65.9739	11.3182	0.7173
66.0022	11.8636	0.7343
66.0305	12.7111	0.7516
66.0587	12.6222	0.7490
66.0870	12.4889	0.7450
66.1153	9.9556	0.6652
66.1435	12.1333	0.7343
66.1718	12.0444	0.7316
66.2001	11.2000	0.7055
66.2283	11.2889	0.7083
66.2566	12.9778	0.7595
66.2849	12.4889	0.7450
66.3131	12.8889	0.7569
66.3414	12.5333	0.7463
66.3697	12.6222	0.7490
66.3979	10.4444	0.6813
66.4262	12.1333	0.7343
66.4545	12.2667	0.7384
66.4827	12.4444	0.7437
66.5110	12.8889	0.7569
66.5392	12.4889	0.7450
66.5675	12.4000	0.7424
66.5958	12.5333	0.7463
66.6240	13.4222	0.7724
66.6523	11.6889	0.7208
66.6806	12.2222	0.7370
66.7088	12.9778	0.7595
66.7371	11.4222	0.7125
66.7654	12.9778	0.7595
66.7936	11.6444	0.7194
66.8219	12.3111	0.7397
66.8502	12.9778	0.7595
66.8784	14.4000	0.8000
66.9067	13.1556	0.7647
66.9350	12.9333	0.7582
66.9632	12.5333	0.7463
66.9915	13.1111	0.7634
67.0198	12.9778	0.7595
67.0480	11.6000	0.7180
67.0763	13.4222	0.7724
67.1046	11.7333	0.7221
67.1328	12.8000	0.7542
67.1611	12.6957	0.7430
67.1894	11.6522	0.7118
67.2176	12.2174	0.7288
67.2459	11.3617	0.6953
67.2742	12.5957	0.7321
67.3024	11.9149	0.7121
67.3307	12.9362	0.7419
67.3589	10.2979	0.6620
67.3872	11.7872	0.7082
67.4155	12.5106	0.7296
67.4437	11.6170	0.7031
67.4720	11.9149	0.7121
67.5003	13.5745	0.7600
67.5285	10.9362	0.6822
67.5568	11.9149	0.7121
67.5851	11.7872	0.7082
67.6133	13.5319	0.7588
67.6416	11.7447	0.7069
67.6699	11.7021	0.7057
67.6981	11.8298	0.7095
67.7264	12.0000	0.7146
67.7547	12.4681	0.7284
67.7829	12.3830	0.7259
67.8112	11.0638	0.6861
67.8395	11.5745	0.7018
67.8677	11.0638	0.6861
67.8960	12.0000	0.7146
67.9243	12.2128	0.7209
67.9525	11.7021	0.7057
67.9808	11.4043	0.6966
68.0091	13.4894	0.7576
68.0373	11.9149	0.7121
68.0656	11.0638	0.6861
68.0939	12.4681	0.7284
68.1221	11.4043	0.6966
68.1504	13.3617	0.7540
68.1787	13.3617	0.7540
68.2069	11.7021	0.7057
68.2352	12.3404	0.7247
68.2634	11.3617	0.6953
68.2917	13.7872	0.7660
68.3200	13.5833	0.7523
68.3482	12.9167	0.7336
68.3765	10.4583	0.6601
68.4048	12.0417	0.7083
68.4330	12.8750	0.7324
68.4613	12.2500	0.7144
68.4896	11.7551	0.6927
68.5178	12.6939	0.7198
68.5461	12.4082	0.7117
68.5744	12.2449	0.7070
68.6026	11.7959	0.6939
68.6309	12.5714	0.7163
68.6592	12.4490	0.7128
68.6874	12.2449	0.7070
68.7157	13.9592	0.7548
68.7440	13.5510	0.7437
68.7722	12.8163	0.7233
68.8005	12.2857	0.7081
68.8288	13.3469	0.7381
68.8570	13.6327	0.7459
68.8853	13.8776	0.7526
68.9136	12.4898	0.7140
68.9418	12.4898	0.7140
68.9701	13.2653	0.7358
68.9984	13.3878	0.7392
69.0266	14.0000	0.7559
69.0549	13.5102	0.7426
69.0831	13.7143	0.7482
69.1114	13.6327	0.7459
69.1397	13.3469	0.7381
69.1679	13.5918	0.7448
69.1962	13.0204	0.7290
69.2245	12.4490	0.7128
69.2527	13.3061	0.7370
69.2810	13.8776	0.7526
69.3093	12.8980	0.7256
69.3375	13.5918	0.7448
69.3658	13.7143	0.7482
69.3941	12.8571	0.7244
69.4223	14.7755	0.7766
69.4506	14.8571	0.7787
69.4789	15.2653	0.7894
69.5071	14.1600	0.7526
69.5354	13.0000	0.7211
69.5637	14.5200	0.7621
69.5919	14.2000	0.7537
69.6202	15.2000	0.7797
69.6485	14.0800	0.7505
69.6767	14.4000	0.7589
69.7050	14.7059	0.7594
69.7333	14.4314	0.7523
69.7615	15.1765	0.7715
69.7898	17.0588	0.8179
69.8181	16.2353	0.7979
69.8463	15.3725	0.7764
69.8746	15.3333	0.7754
69.9028	18.0392	0.8411
69.9311	16.4706	0.8037
69.9594	16.2353	0.7979
69.9876	16.2353	0.7979
70.0159	16.5882	0.8065
70.0442	18.7843	0.8583
70.0724	18.6275	0.8547
70.1007	18.5490	0.8529
70.1290	17.7255	0.8337
70.1572	19.2157	0.8681
70.1855	19.6471	0.8778
70.2138	19.5294	0.8751
70.2420	20.8627	0.9045
70.2703	21.2549	0.9130
70.2986	21.4902	0.9180
70.3268	19.8431	0.8821
70.3551	22.8627	0.9469
70.3834	23.4510	0.9590
70.4116	25.0980	0.9921
70.4399	23.7647	0.9654
70.4682	24.6667	0.9835
70.4964	26.3529	1.0166
70.5247	26.4706	1.0189
70.5530	28.1176	1.0501
70.5812	27.2549	1.0338
70.6095	30.2353	1.0889
70.6378	28.5098	1.0574
70.6660	29.8462	1.0714
70.6943	32.5769	1.1194
70.7226	31.5769	1.1020
70.7508	33.7308	1.1390
70.7791	36.1154	1.1786
70.8073	32.8077	1.1233
70.8356	36.6538	1.1873
70.8639	36.8846	1.1911
70.8921	38.1154	1.2108
70.9204	37.0385	1.1935
70.9487	39.3585	1.2187
70.9769	35.4340	1.1563
71.0052	37.4340	1.1885
71.0335	40.1887	1.2315
71.0617	39.0566	1.2140
71.0900	38.6792	1.2081
71.1183	41.3585	1.2493
71.1465	40.8302	1.2413
71.1748	39.9245	1.2274
71.2031	42.4151	1.2651
71.2313	40.9811	1.2436
71.2596	42.5660	1.2674
71.2879	42.5283	1.2668
71.3161	40.5283	1.2367
71.3444	39.4717	1.2204
71.3727	38.6038	1.2070
71.4009	41.7736	1.2555
71.4292	41.2075	1.2470
71.4575	40.7547	1.2401
71.4857	40.2264	1.2321
71.5140	41.5472	1.2521
71.5423	41.3208	1.2487
71.5705	41.9623	1.2584
71.5988	38.9811	1.2128
71.6270	39.7358	1.2245
71.6553	40.7547	1.2401
71.6836	39.3585	1.2187
71.7118	42.1132	1.2606
71.7401	41.1321	1.2459
71.7684	37.2830	1.1861
71.7966	37.2453	1.1855
71.8249	38.6296	1.1961
71.8532	39.0000	1.2019
71.8814	39.2963	1.2064
71.9097	40.3333	1.2222
71.9380	38.5556	1.1950
71.9662	38.8519	1.1996
71.9945	40.6667	1.2273
72.0228	42.2963	1.2516
72.0510	40.5185	1.2250
72.0793	38.8148	1.1990
72.1076	37.9259	1.1852
72.1358	39.1852	1.2047
72.1641	40.0727	1.2071
72.1924	38.6545	1.1856
72.2206	39.4545	1.1978
72.2489	40.4000	1.2121
72.2772	40.9455	1.2202
72.3054	39.8545	1.2039
72.3337	39.8909	1.2044
72.3620	40.3273	1.2110
72.3902	41.1273	1.2229
72.4185	40.8727	1.2191
72.4468	41.9636	1.2353
72.4750	43.6727	1.2602
72.5033	42.0000	1.2358
72.5315	39.9273	1.2049
72.5598	41.8909	1.2342
72.5881	42.7273	1.2465
72.6163	41.7455	1.2321
72.6446	40.8727	1.2191
72.6729	43.2000	1.2534
72.7011	41.6000	1.2299
72.7294	45.8545	1.2913
72.7577	42.9091	1.2491
72.7859	42.4364	1.2422
72.8142	44.2182	1.2680
72.8425	44.9091	1.2779
72.8707	44.9091	1.2779
72.8990	45.1273	1.2810
72.9273	45.6364	1.2882
72.9555	50.4727	1.3548
72.9838	50.2545	1.3518
73.0121	51.8214	1.3604
73.0403	53.1071	1.3772
73.0686	55.5714	1.4088
73.0969	55.3214	1.4056
73.1251	54.0000	1.3887
73.1534	55.0000	1.4015
73.1817	52.0357	1.3632
73.2099	49.3929	1.3282
73.2382	49.2143	1.3258
73.2665	46.5357	1.2892
73.2947	45.1071	1.2692
73.3230	42.1786	1.2273
73.3512	41.2857	1.2143
73.3795	37.2281	1.1429
73.4078	34.0000	1.0922
73.4360	31.7895	1.0561
73.4643	32.3158	1.0648
73.4926	27.7193	0.9862
73.5208	27.4035	0.9806
73.5491	24.4912	0.9270
73.5774	22.5263	0.8890
73.6056	22.2456	0.8835
73.6339	21.7544	0.8737
73.6622	20.7018	0.8523
73.6904	19.5439	0.8281
73.7187	18.1053	0.7970
73.7470	18.5263	0.8063
73.7752	17.7193	0.7885
73.8035	16.9474	0.7711
73.8318	17.0877	0.7743
73.8600	17.1930	0.7767
73.8883	16.3158	0.7566
73.9166	15.8947	0.7468
73.9448	16.0702	0.7509
73.9731	14.9474	0.7242
74.0014	14.9123	0.7234
74.0296	15.0877	0.7276
74.0579	15.9298	0.7476
74.0862	14.2807	0.7079
74.1144	12.9123	0.6731
74.1427	13.6491	0.6920
74.1709	14.4483	0.7058
74.1992	13.5517	0.6836
74.2275	13.7586	0.6888
74.2557	14.4138	0.7050
74.2840	13.3793	0.6792
74.3123	13.3793	0.6792
74.3405	12.9655	0.6686
74.3688	14.2414	0.7008
74.3971	13.9655	0.6940
74.4253	13.5172	0.6827
74.4536	13.4138	0.6801
74.4819	12.8276	0.6651
74.5101	12.0000	0.6433
74.5384	12.8276	0.6651
74.5667	12.4828	0.6561
74.5949	12.9310	0.6678
74.6232	13.1864	0.6686
74.6515	13.7627	0.6830
74.6797	11.8644	0.6342
74.7080	12.5424	0.6520
74.7363	13.1186	0.6669
74.7645	12.4746	0.6503
74.7928	13.1186	0.6669
74.8211	11.2881	0.6186
74.8493	11.3898	0.6214
74.8776	11.9661	0.6369
74.9059	11.3898	0.6214
74.9341	12.9153	0.6617
74.9624	12.6780	0.6556
74.9907	12.2034	0.6432
75.0189	12.0339	0.6387
75.0472	11.0847	0.6130
75.0754	12.5085	0.6512
75.1037	12.4068	0.6485
75.1320	12.0678	0.6396
75.1602	12.8475	0.6599
75.1885	11.8305	0.6333
75.2168	12.9492	0.6625
75.2450	12.2034	0.6432
75.2733	12.6102	0.6538
75.3016	11.7288	0.6305
75.3298	11.5254	0.6251
75.3581	12.4000	0.6429
75.3864	12.0667	0.6342
75.4146	11.6000	0.6218
75.4429	12.3667	0.6420
75.4712	12.0000	0.6325
75.4994	11.5000	0.6191
75.5277	12.2333	0.6386
75.5560	12.0333	0.6333
75.5842	11.7667	0.6263
75.6125	12.1333	0.6360
75.6408	11.9333	0.6307
75.6690	11.1000	0.6083
75.6973	11.6667	0.6236
75.7256	11.7000	0.6245
75.7538	12.1667	0.6368
75.7821	11.9000	0.6298
75.8104	11.3667	0.6155
75.8386	12.0000	0.6273
75.8669	11.3770	0.6108
75.8951	12.2295	0.6332
75.9234	11.7705	0.6212
75.9517	11.7705	0.6212
75.9799	10.9180	0.5983
76.0082	12.4590	0.6391
76.0365	11.7705	0.6212
76.0647	11.4754	0.6134
76.0930	11.8033	0.6221
76.1213	13.2459	0.6590
76.1495	11.2787	0.6081
76.1778	10.8852	0.5974
76.2061	11.4426	0.6125
76.2343	12.3607	0.6366
76.2626	11.5410	0.6151
76.2909	10.2951	0.5810
76.3191	11.0820	0.6028
76.3474	11.0820	0.6028
76.3757	11.5738	0.6160
76.4039	10.6885	0.5920
76.4322	12.1967	0.6324
76.4605	11.3115	0.6090
76.4887	11.4426	0.6125
76.5170	11.0323	0.5966
76.5453	12.0645	0.6238
76.5735	11.6129	0.6121
76.6018	12.2258	0.6280
76.6301	10.1290	0.5716
76.6583	10.9032	0.5931
76.6866	11.0645	0.5974
76.7149	12.1935	0.6272
76.7431	11.8710	0.6188
76.7714	10.9355	0.5939
76.7996	12.1935	0.6272
76.8279	11.1290	0.5992
76.8562	10.3226	0.5770
76.8844	10.9355	0.5939
76.9127	11.8065	0.6171
76.9410	11.6452	0.6129
76.9692	10.7742	0.5895
76.9975	10.5161	0.5824
77.0258	10.9677	0.5948
77.0540	10.8387	0.5913
77.0823	9.9365	0.5616
77.1106	11.4603	0.6032
77.1388	10.2857	0.5714
77.1671	11.8413	0.6131
77.1954	11.3968	0.6015
77.2236	12.5397	0.6309
77.2519	11.5873	0.6065
77.2802	9.8413	0.5589
77.3084	11.7778	0.6115
77.3367	11.0476	0.5922
77.3650	10.4444	0.5758
77.3932	11.2698	0.5981
77.4215	11.6190	0.6073
77.4498	11.6825	0.6090
77.4780	11.2063	0.5965
77.5063	10.9841	0.5905
77.5346	11.2063	0.5965
77.5628	11.7143	0.6098
77.5911	11.5238	0.6048
77.6193	12.1587	0.6213
77.6476	10.8254	0.5862
77.6759	12.3175	0.6253
77.7041	12.3125	0.6203
77.7324	12.0313	0.6132
77.7607	10.6250	0.5762
77.7889	11.7813	0.6068
77.8172	11.4375	0.5978
77.8455	11.4063	0.5970
77.8737	11.0625	0.5880
77.9020	10.9375	0.5846
77.9303	12.4375	0.6234
77.9585	11.4063	0.5970
77.9868	10.5938	0.5754
78.0151	11.0313	0.5871
78.0433	10.6875	0.5779
78.0716	11.2188	0.5921
78.0999	11.8125	0.6076
78.1281	11.8438	0.6084
78.1564	12.2188	0.6179
78.1847	10.6563	0.5771
78.2129	11.8750	0.6092
78.2412	11.1563	0.5905
78.2695	11.3750	0.5962
78.2977	11.4154	0.5927
78.3260	11.0462	0.5830
78.3543	11.2615	0.5887
78.3825	11.2308	0.5878
78.4108	11.5385	0.5958
78.4390	11.4769	0.5943
78.4673	10.2154	0.5606
78.4956	11.1385	0.5854
78.5238	10.8308	0.5773
78.5521	11.4154	0.5927
78.5804	11.3538	0.5911
78.6086	11.0154	0.5822
78.6369	10.8923	0.5789
78.6652	10.5846	0.5707
78.6934	11.1077	0.5846
78.7217	10.0923	0.5573
78.7500	10.5846	0.5707
78.7782	11.7538	0.6014
78.8065	10.8000	0.5765
78.8348	10.7077	0.5740
78.8630	11.9394	0.6015
78.8913	11.1818	0.5821
78.9196	10.7273	0.5701
78.9478	11.2424	0.5837
78.9761	10.8182	0.5726
79.0044	12.0303	0.6038
79.0326	10.8788	0.5742
79.0609	10.9697	0.5766
79.0892	11.6970	0.5954
79.1174	11.0606	0.5789
79.1457	10.4242	0.5620
79.1740	11.9091	0.6007
79.2022	11.1818	0.5821
79.2305	10.6667	0.5685
79.2588	11.4848	0.5899
79.2870	11.7879	0.5977
79.3153	11.6364	0.5938
79.3435	11.3030	0.5852
79.3718	11.0909	0.5797
79.4001	11.6667	0.5946
79.4283	10.3333	0.5596
79.4566	11.2727	0.5845
79.4849	11.0000	0.5774
79.5131	11.6061	0.5930
79.5414	10.9851	0.5726
79.5697	11.4328	0.5842
79.5979	11.4030	0.5834
79.6262	10.3284	0.5553
79.6545	11.1045	0.5757
79.6827	10.5075	0.5600
79.7110	10.3284	0.5553
79.7393	10.8358	0.5687
79.7675	11.2537	0.5796
79.7958	10.8060	0.5679
79.8241	12.3881	0.6081
79.8523	10.9552	0.5719
79.8806	10.9552	0.5719
79.9089	10.5970	0.5624
79.9371	11.2537	0.5796
79.9654	9.7015	0.5381
79.9937	11.6716	0.5903
80.0219	10.4179	0.5577
80.0502	11.3235	0.5771
80.0785	10.5294	0.5565
80.1067	11.1471	0.5726
80.1350	11.5000	0.5816
80.1632	10.8824	0.5657
80.1915	10.5882	0.5580
80.2198	11.1471	0.5726
80.2480	10.9706	0.5680
80.2763	10.6176	0.5588
80.3046	10.5588	0.5573
80.3328	11.3824	0.5786
80.3611	10.2941	0.5502
80.3894	12.5000	0.6063
80.4176	10.7353	0.5619
80.4459	11.7647	0.5882
80.4742	11.5588	0.5831
80.5024	10.6176	0.5588
80.5307	10.4706	0.5549
80.5590	10.4118	0.5534
80.5872	10.5000	0.5557
80.6155	11.4118	0.5793
80.6438	11.3235	0.5771
80.6720	10.2647	0.5495
80.7003	10.1765	0.5471
80.7286	11.0294	0.5696
80.7568	11.1304	0.5680
80.7851	10.0580	0.5399
80.8134	10.6957	0.5568
80.8416	10.7536	0.5583
80.8699	10.3768	0.5484
80.8982	11.8261	0.5855
80.9264	9.4493	0.5233
80.9547	10.0290	0.5392
80.9830	10.7826	0.5591
81.0112	10.9565	0.5635
81.0395	10.8116	0.5598
81.0677	10.3188	0.5469
81.0960	11.7681	0.5840
81.1243	10.4348	0.5500
81.1525	10.8696	0.5613
81.1808	11.2464	0.5709
81.2091	11.4000	0.5707
81.2373	10.5714	0.5496
81.2656	10.0857	0.5368
81.2939	11.9143	0.5834
81.3221	11.1714	0.5650
81.3504	10.9429	0.5592
81.3787	10.7714	0.5548
81.4069	10.5429	0.5488
81.4352	10.9429	0.5592
81.4635	10.1143	0.5376
81.4917	12.0286	0.5862
81.5200	11.2286	0.5664
81.5483	11.3143	0.5686
81.5765	11.1143	0.5635
81.6048	11.2571	0.5671
81.6331	11.2571	0.5671
81.6613	10.8857	0.5577
81.6896	10.9429	0.5592
81.7179	11.6857	0.5778
81.7461	10.6286	0.5511
81.7744	11.2857	0.5678
81.8027	10.7429	0.5540
81.8309	11.0000	0.5606
81.8592	11.4286	0.5714
81.8874	9.8000	0.5292
81.9157	10.8857	0.5577
81.9440	10.9143	0.5584
81.9722	10.6000	0.5503
82.0005	10.9859	0.5563
82.0288	11.7746	0.5759
82.0570	10.5915	0.5462
82.0853	10.3662	0.5404
82.1136	11.3803	0.5662
82.1418	10.1972	0.5360
82.1701	11.2676	0.5634
82.1984	11.7183	0.5745
82.2266	10.3380	0.5396
82.2549	11.0986	0.5591
82.2832	10.7887	0.5513
82.3114	10.4789	0.5433
82.3397	11.3803	0.5662
82.3680	11.2394	0.5627
82.3962	10.6944	0.5450
82.4245	11.8611	0.5740
82.4528	10.3333	0.5358
82.4810	11.8333	0.5733
82.5093	12.0278	0.5780
82.5376	10.6111	0.5429
82.5658	10.9444	0.5514
82.5941	12.0000	0.5774
82.6224	12.4722	0.5886
82.6506	11.0833	0.5549
82.6789	11.6944	0.5700
82.7071	9.9722	0.5263
82.7354	11.9722	0.5767
82.7637	11.3333	0.5611
82.7919	12.2222	0.5827
82.8202	12.2222	0.5827
82.8485	11.5556	0.5666
82.8767	12.6667	0.5932
82.9050	12.8889	0.5984
82.9333	11.0556	0.5542
82.9615	12.3333	0.5853
82.9898	12.6944	0.5938
83.0181	12.5278	0.5899
83.0463	12.1944	0.5820
83.0746	13.0000	0.6009
83.1029	12.4444	0.5879
83.1311	13.9444	0.6224
83.1594	13.3333	0.6086
83.1877	13.5278	0.6130
83.2159	13.0959	0.5990
83.2442	12.1096	0.5760
83.2725	13.4795	0.6077
83.3007	13.6438	0.6114
83.3290	13.5616	0.6096
83.3573	14.3014	0.6260
83.3855	12.8219	0.5927
83.4138	14.2192	0.6242
83.4421	15.4795	0.6512
83.4703	14.6027	0.6325
83.4986	14.7671	0.6361
83.5269	16.4932	0.6722
83.5551	14.5946	0.6281
83.5834	14.0270	0.6157
83.6116	15.3514	0.6441
83.6399	15.9189	0.6559
83.6682	16.9730	0.6773
83.6964	16.1892	0.6615
83.7247	16.6486	0.6708
83.7530	17.8378	0.6943
83.7812	16.9189	0.6762
83.8095	17.2162	0.6821
83.8378	18.5946	0.7089
83.8660	17.3514	0.6848
83.8943	17.6757	0.6912
83.9226	18.4054	0.7053
83.9508	18.1351	0.7001
83.9791	18.0811	0.6991
84.0074	18.3514	0.7043
84.0356	18.3243	0.7037
84.0639	18.6757	0.7105
84.0922	20.3514	0.7416
84.1204	18.8649	0.7140
84.1487	21.7838	0.7673
84.1770	19.7297	0.7302
84.2052	20.0000	0.7352
84.2335	19.5135	0.7262
84.2618	20.6757	0.7475
84.2900	22.3784	0.7777
84.3183	21.8108	0.7678
84.3466	19.5135	0.7262
84.3748	20.7297	0.7485
84.4031	22.4054	0.7782
84.4313	22.0000	0.7711
84.4596	21.5733	0.7585
84.4879	20.9867	0.7481
84.5161	20.7200	0.7433
84.5444	22.3733	0.7724
84.5727	21.4933	0.7571
84.6009	22.9333	0.7820
84.6292	21.2800	0.7533
84.6575	21.2267	0.7524
84.6857	20.8533	0.7457
84.7140	20.8158	0.7401
84.7423	21.7368	0.7563
84.7705	21.3947	0.7503
84.7988	21.8421	0.7582
84.8271	22.6053	0.7713
84.8553	21.2105	0.7471
84.8836	20.6579	0.7373
84.9119	20.1053	0.7274
84.9401	20.8947	0.7415
84.9684	20.0263	0.7260
84.9967	20.7895	0.7397
85.0249	20.0789	0.7269
85.0532	21.9211	0.7595
85.0815	19.9737	0.7250
85.1097	21.1842	0.7466
85.1380	21.1579	0.7462
85.1663	21.3947	0.7503
85.1945	21.3684	0.7499
85.2228	21.3947	0.7503
85.2511	19.7105	0.7202
85.2793	20.8684	0.7411
85.3076	20.7368	0.7387
85.3358	20.8684	0.7411
85.3641	20.3421	0.7317
85.3924	20.7105	0.7383
85.4206	20.5263	0.7350
85.4489	20.2895	0.7307
85.4772	20.1053	0.7274
85.5054	19.6842	0.7197
85.5337	20.8947	0.7415
85.5620	20.9211	0.7420
85.5902	20.7105	0.7383
85.6185	21.7632	0.7568
85.6468	22.5789	0.7708
85.6750	19.6623	0.7146
85.7033	21.1429	0.7411
85.7316	19.8961	0.7189
85.7598	20.2078	0.7245
85.7881	20.0519	0.7217
85.8164	20.5455	0.7305
85.8446	20.9870	0.7383
85.8729	21.7662	0.7519
85.9012	21.3846	0.7405
85.9294	19.8718	0.7138
85.9577	21.4359	0.7414
85.9860	21.5641	0.7436
86.0142	20.6923	0.7284
86.0425	20.8718	0.7316
86.0708	21.6410	0.7449
86.0990	21.2308	0.7378
86.1273	21.4359	0.7414
86.1555	21.8718	0.7489
86.1838	21.5641	0.7436
86.2121	21.5641	0.7436
86.2403	21.7436	0.7467
86.2686	21.2308	0.7378
86.2969	21.1282	0.7360
86.3251	21.9744	0.7506
86.3534	19.5897	0.7087
86.3817	21.9231	0.7498
86.4099	21.7949	0.7476
86.4382	21.7692	0.7471
86.4665	21.7436	0.7467
86.4947	22.2821	0.7559
86.5230	21.3333	0.7396
86.5513	23.1282	0.7701
86.5795	23.0256	0.7684
86.6078	20.3846	0.7230
86.6361	23.0000	0.7679
86.6643	24.3333	0.7899
86.6926	25.6923	0.8117
86.7209	24.8974	0.7990
86.7491	25.3846	0.8068
86.7774	26.5897	0.8257
86.8057	26.6154	0.8261
86.8339	28.4615	0.8543
86.8622	28.5385	0.8554
86.8905	28.1266	0.8438
86.9187	28.8101	0.8540
86.9470	26.8861	0.8250
86.9752	26.5570	0.8200
87.0035	27.8734	0.8400
87.0318	27.4684	0.8339
87.0600	25.7500	0.8023
87.0883	23.7000	0.7697
87.1166	25.0250	0.7910
87.1448	23.1500	0.7608
87.1731	21.1750	0.7276
87.2014	21.4500	0.7323
87.2296	17.9750	0.6704
87.2579	19.5000	0.6982
87.2862	18.9000	0.6874
87.3144	18.5500	0.6810
87.3427	17.7000	0.6652
87.3710	15.8750	0.6300
87.3992	16.2250	0.6369
87.4275	15.3250	0.6190
87.4558	15.0000	0.6124
87.4840	14.1500	0.5948
87.5123	14.4250	0.6005
87.5406	12.5500	0.5601
87.5688	12.0750	0.5494
87.5971	12.0000	0.5477
87.6254	12.2250	0.5528
87.6536	12.2500	0.5534
87.6819	12.2500	0.5534
87.7102	12.0750	0.5494
87.7384	11.5250	0.5368
87.7667	12.2750	0.5540
87.7950	10.7500	0.5184
87.8232	12.1750	0.5517
87.8515	12.2000	0.5523
87.8797	11.3750	0.5333
87.9080	11.8500	0.5443
87.9363	11.4500	0.5350
87.9645	11.5000	0.5362
87.9928	11.7250	0.5414
88.0211	11.3500	0.5327
88.0493	11.0500	0.5256
88.0776	10.6250	0.5154
88.1059	12.0750	0.5494
88.1341	11.3086	0.5284
88.1624	10.8395	0.5173
88.1907	10.5679	0.5108
88.2189	12.6914	0.5598
88.2472	11.4878	0.5293
88.2755	10.9756	0.5174
88.3037	10.4878	0.5058
88.3320	10.5366	0.5069
88.3603	11.8293	0.5371
88.3885	11.0244	0.5185
88.4168	10.9024	0.5157
88.4451	11.0732	0.5197
88.4733	10.5854	0.5081
88.5016	12.1220	0.5437
88.5299	10.7561	0.5122
88.5581	11.5854	0.5316
88.5864	10.0732	0.4957
88.6147	10.2927	0.5010
88.6429	10.6829	0.5104
88.6712	11.6829	0.5338
88.6994	10.2439	0.4999
88.7277	10.4390	0.5046
88.7560	10.5122	0.5064
88.7842	10.5122	0.5064
88.8125	10.4146	0.5040
88.8408	10.4634	0.5052
88.8690	10.3171	0.5016
88.8973	12.3659	0.5492
88.9256	9.8293	0.4896
88.9538	10.3659	0.5028
88.9821	10.7561	0.5122
89.0104	10.3415	0.5022
89.0386	10.4390	0.5046
89.0669	11.3171	0.5254
89.0952	10.1707	0.4981
89.1234	10.9756	0.5174
89.1517	10.4146	0.5040
89.1800	10.9756	0.5174
89.2082	10.6098	0.5087
89.2365	11.0244	0.5185
89.2648	10.9024	0.5157
89.2930	10.4390	0.5046
89.3213	10.3902	0.5034
89.3496	10.6747	0.5072
89.3778	11.9036	0.5356
89.4061	10.7381	0.5056
89.4344	10.0714	0.4897
89.4626	10.4286	0.4983
89.4909	11.0238	0.5123
89.5192	10.6667	0.5040
89.5474	11.3571	0.5200
89.5757	10.3810	0.4972
89.6039	10.0000	0.4880
89.6322	10.8810	0.5090
89.6605	10.3095	0.4954
89.6887	11.1667	0.5156
89.7170	10.7857	0.5068
89.7453	12.0714	0.5361
89.7735	10.2381	0.4937
89.8018	10.6190	0.5028
89.8301	10.1429	0.4914
89.8583	11.0238	0.5123
89.8866	10.5476	0.5011
89.9149	10.7619	0.5062
89.9431	10.1429	0.4914
89.9714	10.9762	0.5112
89.9997	10.2619	0.4943
90.0279	11.3333	0.5195
90.0562	11.4762	0.5227
90.0845	11.3810	0.5206
90.1127	10.0952	0.4903
90.1410	11.2619	0.5178
90.1693	10.5476	0.5011
90.1975	11.0952	0.5140
90.2258	10.5952	0.5023
90.2541	9.9048	0.4856
90.2823	10.5000	0.5000
90.3106	10.7381	0.5056
90.3389	11.1190	0.5145
90.3671	11.1667	0.5156
90.3954	10.9286	0.5101
90.4236	10.3571	0.4966
90.4519	11.1667	0.5156
90.4802	10.0714	0.4897
90.5084	9.6429	0.4792
90.5367	10.4524	0.4989
90.5650	11.0000	0.5118
90.5932	10.7209	0.4993
90.6215	9.7907	0.4772
90.6498	11.0233	0.5063
90.6780	10.5349	0.4950
90.7063	10.9767	0.5052
90.7346	10.3488	0.4906
90.7628	10.4186	0.4922
90.7911	9.6744	0.4743
90.8194	10.3953	0.4917
90.8476	10.1860	0.4867
90.8759	9.9302	0.4806
90.9042	10.3721	0.4911
90.9324	10.4186	0.4922
90.9607	10.4419	0.4928
90.9890	11.7907	0.5236
91.0172	10.7674	0.5004
91.0455	11.2326	0.5111
91.0738	10.6279	0.4972
91.1020	11.3023	0.5127
91.1303	10.6047	0.4966
91.1586	10.6279	0.4972
91.1868	10.2326	0.4878
91.2151	9.9535	0.4811
91.2433	10.6512	0.4977
91.2716	10.5814	0.4961
91.2999	10.3488	0.4906
91.3281	10.9302	0.5042
91.3564	10.1628	0.4862
91.3847	10.8140	0.5015
91.4129	11.1860	0.5100
91.4412	10.5814	0.4961
91.4695	10.3256	0.4900
91.4977	11.1163	0.5084
91.5260	10.5116	0.4944
91.5543	10.9767	0.5052
91.5825	10.8605	0.5026
91.6108	10.4884	0.4939
91.6391	10.7442	0.4999
91.6673	10.4186	0.4922
91.6956	9.8837	0.4794
91.7239	10.6744	0.4982
91.7521	10.6897	0.4957
91.7804	11.2874	0.5094
91.8087	10.0682	0.4784
91.8369	10.7273	0.4938
91.8652	10.3864	0.4859
91.8935	10.4318	0.4869
91.9217	10.8409	0.4964
91.9500	10.9545	0.4990
91.9783	10.7727	0.4948
92.0065	10.6136	0.4911
92.0348	10.9318	0.4984
92.0631	10.2045	0.4816
92.0913	10.5682	0.4901
92.1196	10.6591	0.4922
92.1478	10.6364	0.4917
92.1761	10.5909	0.4906
92.2044	10.2955	0.4837
92.2326	10.7727	0.4948
92.2609	9.7273	0.4702
92.2892	9.6364	0.4680
92.3174	10.5682	0.4901
92.3457	11.3182	0.5072
92.3740	11.7045	0.5158
92.4022	10.7727	0.4948
92.4305	11.0000	0.5000
92.4588	11.5000	0.5112
92.4870	10.8409	0.4964
92.5153	11.3636	0.5082
92.5436	10.3409	0.4848
92.5718	10.8182	0.4959
92.6001	10.1818	0.4810
92.6284	10.5682	0.4901
92.6566	10.9091	0.4979
92.6849	11.1591	0.5036
92.7132	10.1591	0.4805
92.7414	11.0227	0.5005
92.7697	10.9773	0.4995
92.7980	9.8409	0.4729
92.8262	10.9545	0.4990
92.8545	11.3182	0.5072
92.8828	10.9318	0.4984
92.9110	11.0227	0.5005
92.9393	10.4270	0.4841
92.9675	10.8989	0.4949
92.9958	11.7528	0.5139
93.0241	11.2809	0.5035
93.0523	10.3778	0.4802
93.0806	10.2889	0.4782
93.1089	11.8889	0.5140
93.1371	10.7333	0.4884
93.1654	11.1333	0.4974
93.1937	11.4444	0.5043
93.2219	10.9111	0.4924
93.2502	11.0667	0.4959
93.2785	11.2222	0.4994
93.3067	11.3111	0.5014
93.3350	10.6889	0.4874
93.3633	10.6889	0.4874
93.3915	12.2444	0.5216
93.4198	10.5111	0.4833
93.4481	10.6222	0.4858
93.4763	11.4444	0.5043
93.5046	10.2000	0.4761
93.5329	11.3111	0.5014
93.5611	11.6444	0.5087
93.5894	11.5778	0.5072
93.6177	11.8000	0.5121
93.6459	10.6000	0.4853
93.6742	10.8667	0.4914
93.7025	10.9333	0.4929
93.7307	9.8000	0.4667
93.7590	11.5111	0.5058
93.7872	12.3556	0.5240
93.8155	11.2222	0.4994
93.8438	10.8000	0.4899
93.8720	11.5111	0.5058
93.9003	11.2222	0.4994
93.9286	11.0444	0.4954
93.9568	11.6000	0.5077
93.9851	12.4222	0.5254
94.0134	10.8444	0.4909
94.0416	10.9556	0.4934
94.0699	10.7333	0.4884
94.0982	11.6923	0.5069
94.1264	11.1868	0.4958
94.1547	11.6044	0.5050
94.1830	10.9451	0.4905
94.2112	12.1538	0.5168
94.2395	10.6813	0.4845
94.2678	10.3913	0.4753
94.2960	11.8913	0.5084
94.3243	10.6522	0.4812
94.3526	11.9130	0.5089
94.3808	11.7826	0.5061
94.4091	11.5435	0.5009
94.4374	11.6522	0.5033
94.4656	11.8043	0.5066
94.4939	11.5000	0.5000
94.5222	11.7174	0.5047
94.5504	11.5652	0.5014
94.5787	11.5870	0.5019
94.6070	11.9783	0.5103
94.6352	11.6957	0.5042
94.6635	11.1957	0.4933
94.6917	12.4565	0.5204
94.7200	12.8043	0.5276
94.7483	12.6957	0.5253
94.7765	11.8478	0.5075
94.8048	11.8478	0.5075
94.8331	12.7174	0.5258
94.8613	12.0435	0.5117
94.8896	11.6522	0.5033
94.9179	12.1087	0.5131
94.9461	12.9565	0.5307
94.9744	12.3913	0.5190
95.0027	11.9130	0.5089
95.0309	12.4783	0.5208
95.0592	11.4783	0.4995
95.0875	11.8696	0.5080
95.1157	14.0217	0.5521
95.1440	11.9348	0.5094
95.1723	11.3696	0.4972
95.2005	13.1087	0.5338
95.2288	13.0000	0.5316
95.2571	12.5652	0.5226
95.2853	13.0323	0.5294
95.3136	13.7849	0.5445
95.3419	13.4624	0.5381
95.3701	12.9247	0.5272
95.3984	13.0323	0.5294
95.4267	13.7849	0.5445
95.4549	12.7742	0.5241
95.4832	15.0538	0.5690
95.5114	13.9362	0.5445
95.5397	14.6596	0.5585
95.5680	14.0000	0.5458
95.5962	14.1702	0.5491
95.6245	13.4255	0.5345
95.6528	14.2979	0.5516
95.6810	14.5106	0.5556
95.7093	14.2766	0.5511
95.7376	15.0638	0.5661
95.7658	14.9787	0.5645
95.7941	14.8723	0.5625
95.8224	14.5319	0.5560
95.8506	15.3191	0.5709
95.8789	15.1064	0.5669
95.9072	15.4468	0.5733
95.9354	15.3404	0.5713
95.9637	16.4043	0.5908
95.9920	15.9362	0.5823
96.0202	15.3830	0.5721
96.0485	16.2766	0.5885
96.0768	17.4681	0.6096
96.1050	15.8298	0.5803
96.1333	16.9149	0.5999
96.1616	16.8723	0.5992
96.1898	16.9787	0.6010
96.2181	17.7234	0.6141
96.2464	17.5319	0.6108
96.2746	18.1064	0.6207
96.3029	17.5745	0.6115
96.3312	18.3191	0.6243
96.3594	17.2979	0.6067
96.3877	18.5745	0.6287
96.4159	18.7660	0.6319
96.4442	20.7579	0.6611
96.4725	19.1368	0.6347
96.5007	20.7368	0.6607
96.5290	20.4000	0.6553
96.5573	19.0316	0.6330
96.5855	21.2842	0.6694
96.6138	19.5579	0.6417
96.6421	22.2737	0.6848
96.6703	20.0632	0.6499
96.6986	21.7474	0.6766
96.7269	21.9167	0.6757
96.7551	21.4583	0.6686
96.7834	21.8958	0.6754
96.8117	22.9375	0.6913
96.8399	23.1458	0.6944
96.8682	22.7917	0.6891
96.8965	22.7708	0.6888
96.9247	25.9167	0.7348
96.9530	23.6250	0.7016
96.9813	23.7917	0.7040
97.0095	24.0833	0.7083
97.0378	23.9375	0.7062
97.0661	23.5833	0.7009
97.0943	24.6667	0.7169
97.1226	24.5625	0.7153
97.1509	25.2500	0.7253
97.1791	23.7917	0.7040
97.2074	23.9167	0.7059
97.2356	25.5417	0.7295
97.2639	24.8542	0.7196
97.2922	26.0417	0.7366
97.3204	24.8542	0.7196
97.3487	25.8125	0.7333
97.3770	25.2083	0.7247
97.4052	25.5625	0.7298
97.4335	26.0833	0.7372
97.4618	25.5417	0.7295
97.4900	25.9167	0.7348
97.5183	25.5000	0.7289
97.5466	26.2500	0.7395
97.5748	27.1667	0.7523
97.6031	24.9691	0.7175
97.6314	24.9485	0.7172
97.6596	26.5567	0.7400
97.6879	27.5052	0.7531
97.7162	26.1443	0.7342
97.7444	25.9794	0.7319
97.7727	24.5567	0.7116
97.8010	27.0722	0.7471
97.8292	26.7216	0.7423
97.8575	25.6495	0.7272
97.8858	25.2165	0.7211
97.9140	27.4845	0.7528
97.9423	26.5567	0.7400
97.9706	25.4082	0.7201
97.9988	24.2245	0.7031
98.0271	25.0816	0.7155
98.0553	24.0204	0.7002
98.0836	25.8980	0.7270
98.1119	26.0204	0.7287
98.1401	25.0408	0.7149
98.1684	26.1633	0.7307
98.1967	26.3878	0.7338
98.2249	25.0816	0.7155
98.2532	25.7143	0.7244
98.2815	26.5510	0.7361
98.3097	25.6327	0.7233
98.3380	26.7551	0.7389
98.3663	26.0204	0.7287
98.3945	25.9388	0.7276
98.4228	26.1224	0.7301
98.4511	25.8367	0.7261
98.4793	27.0612	0.7431
98.5076	26.9184	0.7412
98.5359	26.5510	0.7361
98.5641	26.3265	0.7330
98.5924	26.1224	0.7301
98.6207	27.1224	0.7440
98.6489	27.4082	0.7479
98.6772	26.1224	0.7301
98.7055	26.3673	0.7336
98.7337	26.9592	0.7417
98.7620	25.6939	0.7241
98.7903	27.4490	0.7485
98.8185	26.7347	0.7387
98.8468	26.5102	0.7355
98.8751	27.0816	0.7434
98.9033	26.7551	0.7389
98.9316	26.0816	0.7296
98.9598	26.0408	0.7290
98.9881	26.9592	0.7417
99.0164	27.7576	0.7488
99.0446	28.2222	0.7551
99.0729	27.8384	0.7499
99.1012	26.9091	0.7373
99.1294	27.0303	0.7390
99.1577	27.2929	0.7425
99.1860	27.1800	0.7373
99.2142	28.0200	0.7486
99.2425	27.9400	0.7475
99.2708	29.1000	0.7629
99.2990	28.3400	0.7529
99.3273	27.8400	0.7462
99.3556	26.9200	0.7338
99.3838	28.4600	0.7545
99.4121	28.0400	0.7489
99.4404	28.1400	0.7502
99.4686	28.7000	0.7576
99.4969	29.3600	0.7663
99.5252	29.3000	0.7655
99.5534	29.7800	0.7718
99.5817	27.4000	0.7403
99.6100	28.1600	0.7505
99.6382	28.9000	0.7603
99.6665	27.9600	0.7478
99.6948	29.8000	0.7720
99.7230	28.6400	0.7568
99.7513	27.8600	0.7465
99.7795	26.6600	0.7302
99.8078	27.7800	0.7454
99.8361	28.0600	0.7491
99.8643	28.4200	0.7539
99.8926	27.7200	0.7446
99.9209	26.9200	0.7338
99.9491	28.1400	0.7502
99.9774	27.8400	0.7462
100.0057	28.1400	0.7502
100.0339	29.9400	0.7738
100.0622	29.4200	0.7671
100.0905	28.6800	0.7574
100.1187	29.9400	0.7738
100.1470	29.0600	0.7624
100.1753	30.0600	0.7754
100.2035	30.2200	0.7774
100.2318	31.0800	0.7884
100.2601	30.2600	0.7779
100.2883	33.1200	0.8139
100.3166	34.8400	0.8347
100.3449	34.7800	0.8340
100.3731	34.6800	0.8328
100.4014	36.9703	0.8556
100.4297	35.9412	0.8395
100.4579	37.8235	0.8612
100.4862	36.8431	0.8499
100.5145	36.1373	0.8418
100.5427	36.3922	0.8447
100.5710	38.3922	0.8676
100.5993	38.9216	0.8736
100.6275	36.7647	0.8490
100.6558	36.4118	0.8450
100.6840	35.3725	0.8328
100.7123	35.6078	0.8356
100.7406	33.7843	0.8139
100.7688	32.8824	0.8030
100.7971	32.9608	0.8039
100.8254	31.0392	0.7801
100.8536	28.7647	0.7510
100.8819	28.6275	0.7492
100.9102	28.4902	0.7474
100.9384	27.4314	0.7334
100.9667	25.7255	0.7102
100.9950	25.6078	0.7086
101.0232	23.4902	0.6787
101.0515	23.4706	0.6784
101.0798	21.0980	0.6432
101.1080	20.7059	0.6372
101.1363	20.2549	0.6302
101.1646	20.1373	0.6284
101.1928	18.1373	0.5963
101.2211	19.0784	0.6116
101.2494	17.5686	0.5869
101.2776	17.3922	0.5840
101.3059	17.7647	0.5902
101.3342	16.1176	0.5622
101.3624	17.2353	0.5813
101.3907	15.4902	0.5511
101.4190	15.6667	0.5542
101.4472	14.7843	0.5384
101.4755	15.5098	0.5515
101.5037	15.2745	0.5473
101.5320	14.1176	0.5261
101.5603	14.4314	0.5319
101.5885	14.8235	0.5391
101.6168	14.4118	0.5316
101.6451	14.6078	0.5352
101.6733	12.9020	0.5030
101.7016	14.0980	0.5258
101.7299	13.8039	0.5203
101.7581	13.4706	0.5139
101.7864	13.1765	0.5083
101.8147	13.6471	0.5173
101.8429	13.4369	0.5108
101.8712	13.7308	0.5139
101.8995	13.2115	0.5041
101.9277	12.9423	0.4989
101.9560	12.1923	0.4842
101.9843	12.4038	0.4884
102.0125	13.0385	0.5007
102.0408	13.7500	0.5142
102.0691	13.0000	0.5000
102.0973	13.0192	0.5004
102.1256	12.8269	0.4967
102.1539	13.5769	0.5110
102.1821	12.8654	0.4974
102.2104	11.6731	0.4738
102.2387	13.0000	0.5000
102.2669	13.3654	0.5070
102.2952	12.4423	0.4892
102.3234	12.6154	0.4925
102.3517	11.7500	0.4754
102.3800	12.2500	0.4854
102.4082	12.8654	0.4974
102.4365	12.7885	0.4959
102.4648	12.5577	0.4914
102.4930	12.6346	0.4929
102.5213	12.4231	0.4888
102.5496	12.1538	0.4835
102.5778	12.3654	0.4876
102.6061	12.2692	0.4857
102.6344	13.7692	0.5146
102.6626	12.9231	0.4985
102.6909	12.0577	0.4815
102.7192	11.7885	0.4761
102.7474	12.1731	0.4838
102.7757	11.8269	0.4769
102.8040	11.6154	0.4726
102.8322	12.1923	0.4842
102.8605	11.9423	0.4792
102.8888	11.3846	0.4679
102.9170	12.2885	0.4861
102.9453	12.2500	0.4854
102.9736	11.2885	0.4659
103.0018	12.1154	0.4827
103.0301	12.5385	0.4910
103.0584	11.7885	0.4761
103.0866	11.5000	0.4703
103.1149	11.7115	0.4746
103.1432	12.3654	0.4876
103.1714	12.1346	0.4831
103.1997	12.5000	0.4903
103.2279	11.9808	0.4800
103.2562	11.7333	0.4727
103.2845	12.7048	0.4919
103.3127	12.5143	0.4882
103.3410	11.4151	0.4641
103.3693	11.9623	0.4751
103.3975	11.5849	0.4675
103.4258	10.9057	0.4536
103.4541	11.3585	0.4629
103.4823	12.0943	0.4777
103.5106	10.9811	0.4552
103.5389	12.6792	0.4891
103.5671	12.2642	0.4810
103.5954	11.6981	0.4698
103.6237	12.2264	0.4803
103.6519	11.7358	0.4706
103.6802	11.9623	0.4751
103.7085	11.2642	0.4610
103.7367	11.6415	0.4687
103.7650	11.9434	0.4747
103.7933	11.7736	0.4713
103.8215	11.9623	0.4751
103.8498	11.2642	0.4610
103.8781	11.8491	0.4728
103.9063	11.4151	0.4641
103.9346	11.4340	0.4645
103.9629	11.3396	0.4626
103.9911	11.3774	0.4633
104.0194	11.3962	0.4637
104.0476	11.3396	0.4626
104.0759	10.2264	0.4393
104.1042	10.9245	0.4540
104.1324	12.3019	0.4818
104.1607	11.4151	0.4641
104.1890	11.6981	0.4698
104.2172	11.8679	0.4732
104.2455	11.5283	0.4664
104.2738	11.7358	0.4706
104.3020	11.3396	0.4626
104.3303	11.3585	0.4629
104.3586	12.8679	0.4927
104.3868	12.1887	0.4796
104.4151	11.6981	0.4698
104.4434	12.1887	0.4796
104.4716	12.3208	0.4821
104.4999	11.7170	0.4702
104.5282	11.6604	0.4690
104.5564	11.4717	0.4652
104.5847	12.1321	0.4784
104.6130	11.9245	0.4743
104.6412	11.5094	0.4660
104.6695	11.8692	0.4710
104.6978	11.7757	0.4692
104.7260	12.1682	0.4769
104.7543	11.5888	0.4654
104.7826	11.6822	0.4673
104.8108	11.5926	0.4633
104.8391	12.1481	0.4743
104.8674	11.6296	0.4641
104.8956	10.8889	0.4491
104.9239	11.5926	0.4633
104.9521	11.2222	0.4559
104.9804	11.1296	0.4540
105.0087	11.9815	0.4710
105.0369	12.4074	0.4793
105.0652	11.4074	0.4596
105.0935	11.3704	0.4589
105.1217	10.9259	0.4498
105.1500	11.6667	0.4648
105.1783	11.7407	0.4663
105.2065	11.6667	0.4648
105.2348	11.3333	0.4581
105.2631	12.2593	0.4765
105.2913	11.5000	0.4615
105.3196	11.5370	0.4622
105.3479	12.1481	0.4743
105.3761	11.8333	0.4681
105.4044	11.9074	0.4696
105.4327	10.5741	0.4425
105.4609	12.0926	0.4732
105.4892	11.4815	0.4611
105.5175	12.3148	0.4775
105.5457	11.3704	0.4589
105.5740	11.6111	0.4637
105.6023	12.0185	0.4718
105.6305	11.1111	0.4536
105.6588	12.4074	0.4793
105.6871	11.8148	0.4678
105.7153	12.0741	0.4729
105.7436	11.4815	0.4611
105.7718	10.7963	0.4471
105.8001	11.0556	0.4525
105.8284	11.7222	0.4659
105.8566	11.7222	0.4659
105.8849	11.6296	0.4641
105.9132	11.8333	0.4681
105.9414	11.7407	0.4663
105.9697	11.5741	0.4630
105.9980	12.0926	0.4732
106.0262	10.7222	0.4456
106.0545	12.2407	0.4761
106.0828	11.3211	0.4558
106.1110	11.9633	0.4685
106.1393	12.1101	0.4714
106.1676	12.1651	0.4725
106.1958	11.1927	0.4532
106.2241	11.6697	0.4627
106.2524	11.9450	0.4682
106.2806	11.7455	0.4621
106.3089	12.2909	0.4727
106.3372	11.6909	0.4610
106.3654	11.5273	0.4578
106.3937	11.7818	0.4628
106.4220	11.9818	0.4667
106.4502	11.4727	0.4567
106.4785	10.9636	0.4465
106.5068	11.8727	0.4646
106.5350	11.0909	0.4491
106.5633	11.6545	0.4603
106.5915	11.9455	0.4660
106.6198	11.4364	0.4560
106.6481	12.2545	0.4720
106.6763	12.4545	0.4759
106.7046	12.3273	0.4734
106.7329	12.7273	0.4810
106.7611	11.2909	0.4531
106.7894	11.4909	0.4571
106.8177	11.0727	0.4487
106.8459	11.0000	0.4472
106.8742	11.9455	0.4660
106.9025	11.3455	0.4542
106.9307	11.5818	0.4589
106.9590	11.3818	0.4549
106.9873	11.6545	0.4603
107.0155	11.4727	0.4567
107.0438	11.2909	0.4531
107.0721	12.1818	0.4706
107.1003	10.9091	0.4454
107.1286	12.0364	0.4678
107.1569	11.9455	0.4660
107.1851	10.6545	0.4401
107.2134	12.0000	0.4671
107.2417	12.4364	0.4755
107.2699	12.2364	0.4717
107.2982	11.7636	0.4625
107.3265	12.0909	0.4689
107.3547	11.5818	0.4589
107.3830	11.8909	0.4650
107.4113	11.6545	0.4603
107.4395	11.3636	0.4545
107.4678	10.9455	0.4461
107.4960	11.2793	0.4508
107.5243	12.0000	0.4650
107.5526	11.9459	0.4639
107.5808	12.5946	0.4764
107.6091	11.8739	0.4625
107.6374	11.4955	0.4551
107.6656	11.4775	0.4548
107.6939	12.1802	0.4685
107.7222	12.1261	0.4674
107.7504	11.0179	0.4436
107.7787	11.6607	0.4563
107.8070	12.2500	0.4677
107.8352	11.0000	0.4432
107.8635	11.4107	0.4514
107.8918	11.5536	0.4542
107.9200	12.1607	0.4660
107.9483	12.1250	0.4653
107.9766	11.4643	0.4525
108.0048	11.2500	0.4482
108.0331	11.4464	0.4521
108.0614	11.5000	0.4532
108.0896	11.9464	0.4619
108.1179	11.5714	0.4546
108.1462	12.1071	0.4650
108.1744	11.7321	0.4577
108.2027	12.3929	0.4704
108.2310	11.7321	0.4577
108.2592	13.0714	0.4831
108.2875	11.3214	0.4496
108.3157	12.2321	0.4674
108.3440	10.6607	0.4363
108.3723	12.0536	0.4639
108.4005	11.8036	0.4591
108.4288	12.2143	0.4670
108.4571	11.8214	0.4595
108.4853	11.3571	0.4503
108.5136	11.6607	0.4563
108.5419	12.0357	0.4636
108.5701	11.9821	0.4626
108.5984	11.0893	0.4450
108.6267	11.8929	0.4608
108.6549	12.4107	0.4708
108.6832	11.5893	0.4549
108.7115	11.8378	0.4618
108.7397	12.0727	0.4685
108.7680	11.4679	0.4587
108.7963	12.1481	0.4743
108.8245	11.7570	0.4688
108.8528	12.6981	0.4895
108.8811	12.1333	0.4807
108.9093	11.6154	0.4726
108.9376	11.7087	0.4768
108.9659	11.8235	0.4815
108.9941	12.2574	0.4927
109.0224	11.3400	0.4762
109.0507	12.4040	0.5006
109.0789	11.9388	0.4936
109.1072	10.9691	0.4756
109.1355	11.9792	0.4996
109.1637	12.0211	0.5031
109.1920	11.8723	0.5026
109.2202	12.5745	0.5172
109.2485	12.5806	0.5201
109.2768	12.7391	0.5262
109.3050	11.5165	0.5031
109.3333	12.4667	0.5263
109.3616	12.2921	0.5256
109.3898	12.5227	0.5335
109.4181	12.6207	0.5386
109.4464	12.1163	0.5308
109.4746	11.8588	0.5282
109.5029	12.3571	0.5424
109.5312	11.8313	0.5339
109.5594	12.9512	0.5620
109.5877	12.1235	0.5471
109.6160	12.2500	0.5534
109.6442	13.0127	0.5740
109.6725	12.6667	0.5699
109.7008	12.9610	0.5802
109.7290	12.4737	0.5729
109.7573	11.8400	0.5619
109.7856	11.8919	0.5669
109.8138	12.5479	0.5863
109.8421	13.0833	0.6028
109.8704	12.7042	0.5982
109.8986	12.6571	0.6014
109.9269	12.9565	0.6128
109.9552	11.7353	0.5875
109.9834	12.1791	0.6030
