/* W35Ta40Cr25-SPS; 2ÆŸ 20.00-110.00 by 0.014, dwell 0 s; 20-110 1-2-0.2 - 24_03_31_0015_7-W35Ta40Cr25-SPS-1.xml; count; KAlpha1 1.540593; */
20.0141	1093.0000	33.0606
20.0424	1113.0000	33.3617
20.0707	1196.0000	34.5832
20.0989	1161.0000	34.0735
20.1272	1198.0000	34.6121
20.1555	1334.0000	36.5240
20.1837	1274.0000	35.6931
20.2120	1294.0000	35.9722
20.2403	1272.0000	35.6651
20.2685	1378.0000	37.1214
20.2968	1338.0000	36.5787
20.3251	1384.0000	37.2022
20.3533	1453.0000	38.1182
20.3816	1449.0000	38.0657
20.4099	1399.0000	37.4032
20.4381	1484.0000	38.5227
20.4664	1418.0000	37.6563
20.4946	1507.0000	38.8201
20.5229	1508.0000	38.8330
20.5512	1617.0000	40.2119
20.5794	1546.0000	39.3192
20.6077	1550.0000	39.3700
20.6360	1560.0000	39.4968
20.6642	1621.0000	40.2616
20.6925	1677.0000	40.9512
20.7208	1670.0000	40.8656
20.7490	1736.0000	41.6653
20.7773	1752.0000	41.8569
20.8056	1737.0000	41.6773
20.8338	1794.0000	42.3556
20.8621	1740.0000	41.7133
20.8904	1870.0000	43.2435
20.9186	1721.0000	41.4849
20.9469	1779.0000	42.1782
20.9752	1952.0000	44.1814
21.0034	1871.0000	43.2551
21.0317	1893.0000	43.5086
21.0600	1893.0000	43.5086
21.0882	1980.0000	44.4972
21.1165	1932.0000	43.9545
21.1448	1954.0000	44.2041
21.1730	2088.0000	45.6946
21.2013	1980.0000	44.4972
21.2296	2076.0000	45.5631
21.2578	2024.0000	44.9889
21.2861	2051.0000	45.2880
21.3143	2041.0000	45.1774
21.3426	2072.0000	45.5192
21.3709	2100.0000	45.8258
21.3991	2091.0000	45.7275
21.4274	2064.0000	45.4313
21.4557	2146.0000	46.3249
21.4839	2155.0000	46.4220
21.5122	2191.0000	46.8081
21.5405	2242.0000	47.3498
21.5687	2151.0000	46.3789
21.5970	2232.0000	47.2440
21.6253	2234.0000	47.2652
21.6535	2212.0000	47.0319
21.6818	2311.0000	48.0729
21.7101	2288.0000	47.8330
21.7383	2208.0000	46.9894
21.7666	2185.0000	46.7440
21.7949	2253.0000	47.4658
21.8231	2370.0000	48.6826
21.8514	2268.0000	47.6235
21.8797	2244.0000	47.3709
21.9079	2353.0000	48.5077
21.9362	2289.0000	47.8435
21.9645	2226.0000	47.1805
21.9927	2299.0000	47.9479
22.0210	2296.0000	47.9166
22.0493	2206.0000	46.9681
22.0775	2178.0000	46.6690
22.1058	2116.0000	46.0000
22.1340	2069.0000	45.4863
22.1623	2131.0000	46.1628
22.1906	2107.0000	45.9021
22.2188	2098.0000	45.8039
22.2471	2136.0000	46.2169
22.2754	2117.0000	46.0109
22.3036	2085.0000	45.6618
22.3319	2030.0000	45.0555
22.3602	2165.0000	46.5296
22.3884	1991.0000	44.6206
22.4167	2140.0000	46.2601
22.4450	2052.0000	45.2990
22.4732	2074.0000	45.5412
22.5015	1999.0000	44.7102
22.5298	2074.0000	45.5412
22.5580	1995.0000	44.6654
22.5863	1990.0000	44.6094
22.6146	2015.0000	44.8888
22.6428	2018.0000	44.9222
22.6711	1970.0000	44.3847
22.6994	1942.0000	44.0681
22.7276	1954.0000	44.2041
22.7559	1984.0000	44.5421
22.7842	1955.0000	44.2154
22.8124	2029.0000	45.0444
22.8407	2018.0000	44.9222
22.8690	2007.0000	44.7996
22.8972	1930.0000	43.9318
22.9255	1932.0000	43.9545
22.9538	1965.0000	44.3283
22.9820	1978.0000	44.4747
23.0103	1929.0000	43.9204
23.0385	1992.0000	44.6318
23.0668	1879.0000	43.3474
23.0951	1945.0000	44.1022
23.1233	1876.0000	43.3128
23.1516	1882.0000	43.3820
23.1799	1899.0000	43.5775
23.2081	2009.0000	44.8219
23.2364	1875.0000	43.3013
23.2647	1950.0000	44.1588
23.2929	1948.0000	44.1362
23.3212	1866.0000	43.1972
23.3495	1942.0000	44.0681
23.3777	1981.0000	44.5084
23.4060	1950.0000	44.1588
23.4343	1829.0000	42.7668
23.4625	2007.0000	44.7996
23.4908	1796.0000	42.3792
23.5191	1846.0000	42.9651
23.5473	1880.0000	43.3590
23.5756	1872.0000	43.2666
23.6039	1906.0000	43.6578
23.6321	1877.0000	43.3244
23.6604	1929.0000	43.9204
23.6887	1817.0000	42.6263
23.7169	1968.0000	44.3621
23.7452	1857.0000	43.0929
23.7735	1831.0000	42.7902
23.8017	1869.0000	43.2319
23.8300	1836.0000	42.8486
23.8582	1844.0000	42.9418
23.8865	1819.0000	42.6497
23.9148	1770.0000	42.0714
23.9430	1885.0000	43.4166
23.9713	1817.0000	42.6263
23.9996	1780.0000	42.1900
24.0278	1748.0000	41.8091
24.0561	1797.0000	42.3910
24.0844	1828.0000	42.7551
24.1126	1817.0000	42.6263
24.1409	1759.0000	41.9404
24.1692	1889.0000	43.4626
24.1974	1788.0000	42.2847
24.2257	1780.0000	42.1900
24.2540	1880.0000	43.3590
24.2822	1808.0000	42.5206
24.3105	1784.0000	42.2374
24.3388	1841.0000	42.9069
24.3670	1796.0000	42.3792
24.3953	1826.0000	42.7317
24.4236	1821.0000	42.6732
24.4518	1754.0000	41.8808
24.4801	1720.0000	41.4729
24.5084	1841.0000	42.9069
24.5366	1710.0000	41.3521
24.5649	1726.0000	41.5452
24.5932	1809.0000	42.5323
24.6214	1740.0000	41.7133
24.6497	1743.0000	41.7493
24.6780	1760.0000	41.9524
24.7062	1831.0000	42.7902
24.7345	1672.0000	40.8901
24.7627	1698.0000	41.2068
24.7910	1773.0000	42.1070
24.8193	1779.0000	42.1782
24.8475	1749.0000	41.8210
24.8758	1779.0000	42.1782
24.9041	1790.0000	42.3084
24.9323	1704.0000	41.2795
24.9606	1674.0000	40.9145
24.9889	1750.0000	41.8330
25.0171	1740.0000	41.7133
25.0454	1700.0000	41.2311
25.0737	1753.0000	41.8688
25.1019	1849.0000	43.0000
25.1302	1750.0000	41.8330
25.1585	1719.0000	41.4608
25.1867	1700.0000	41.2311
25.2150	1727.0000	41.5572
25.2433	1628.0000	40.3485
25.2715	1708.0000	41.3280
25.2998	1666.0000	40.8167
25.3281	1740.0000	41.7133
25.3563	1771.0000	42.0833
25.3846	1735.0000	41.6533
25.4129	1659.0000	40.7308
25.4411	1759.0000	41.9404
25.4694	1784.0000	42.2374
25.4977	1650.0000	40.6202
25.5259	1619.0000	40.2368
25.5542	1656.0000	40.6940
25.5824	1739.0000	41.7013
25.6107	1730.0000	41.5933
25.6390	1718.0000	41.4488
25.6672	1719.0000	41.4608
25.6955	1734.0000	41.6413
25.7238	1717.0000	41.4367
25.7520	1662.0000	40.7676
25.7803	1655.0000	40.6817
25.8086	1670.0000	40.8656
25.8368	1753.0000	41.8688
25.8651	1642.0000	40.5216
25.8934	1628.0000	40.3485
25.9216	1723.0000	41.5090
25.9499	1643.0000	40.5339
25.9782	1649.0000	40.6079
26.0064	1702.0000	41.2553
26.0347	1703.0000	41.2674
26.0630	1613.0000	40.1622
26.0912	1571.0000	39.6358
26.1195	1664.0000	40.7922
26.1478	1687.0000	41.0731
26.1760	1627.0000	40.3361
26.2043	1636.0000	40.4475
26.2326	1640.0000	40.4969
26.2608	1631.0000	40.3856
26.2891	1621.0000	40.2616
26.3174	1604.0000	40.0500
26.3456	1531.0000	39.1280
26.3739	1576.0000	39.6989
26.4021	1612.0000	40.1497
26.4304	1644.0000	40.5463
26.4587	1657.0000	40.7063
26.4869	1632.0000	40.3980
26.5152	1652.0000	40.6448
26.5435	1679.0000	40.9756
26.5717	1588.0000	39.8497
26.6000	1590.0000	39.8748
26.6283	1626.0000	40.3237
26.6565	1634.0000	40.4228
26.6848	1667.0000	40.8289
26.7131	1681.0000	41.0000
26.7413	1627.0000	40.3361
26.7696	1628.0000	40.3485
26.7979	1635.0000	40.4351
26.8261	1574.0000	39.6737
26.8544	1707.0000	41.3159
26.8827	1616.0000	40.1995
26.9109	1631.0000	40.3856
26.9392	1617.0000	40.2119
26.9675	1654.0000	40.6694
26.9957	1619.0000	40.2368
27.0240	1555.0000	39.4335
27.0523	1605.0000	40.0625
27.0805	1529.0000	39.1024
27.1088	1571.0000	39.6358
27.1371	1567.0000	39.5854
27.1653	1505.0000	38.7943
27.1936	1602.0000	40.0250
27.2219	1508.0000	38.8330
27.2501	1594.0000	39.9249
27.2784	1584.0000	39.7995
27.3066	1554.0000	39.4208
27.3349	1610.0000	40.1248
27.3632	1635.0000	40.4351
27.3914	1602.0000	40.0250
27.4197	1553.0000	39.4081
27.4480	1585.0000	39.8121
27.4762	1557.0000	39.4588
27.5045	1513.0000	38.8973
27.5328	1599.0000	39.9875
27.5610	1535.0000	39.1791
27.5893	1554.0000	39.4208
27.6176	1508.0000	38.8330
27.6458	1506.0000	38.8072
27.6741	1550.0000	39.3700
27.7024	1539.0000	39.2301
27.7306	1561.0000	39.5095
27.7589	1513.0000	38.8973
27.7872	1593.0000	39.9124
27.8154	1532.0000	39.1408
27.8437	1524.0000	39.0384
27.8720	1474.0000	38.3927
27.9002	1553.0000	39.4081
27.9285	1515.0000	38.9230
27.9568	1526.0000	39.0640
27.9850	1490.0000	38.6005
28.0133	1561.0000	39.5095
28.0416	1538.0000	39.2173
28.0698	1483.0000	38.5097
28.0981	1522.0000	39.0128
28.1263	1552.0000	39.3954
28.1546	1576.0000	39.6989
28.1829	1559.0000	39.4842
28.2111	1603.0000	40.0375
28.2394	1506.0000	38.8072
28.2677	1545.0000	39.3065
28.2959	1554.0000	39.4208
28.3242	1515.0000	38.9230
28.3525	1596.0000	39.9500
28.3807	1558.0000	39.4715
28.4090	1583.0000	39.7869
28.4373	1528.0000	39.0896
28.4655	1597.0000	39.9625
28.4938	1556.0000	39.4462
28.5221	1488.0000	38.5746
28.5503	1485.0000	38.5357
28.5786	1521.0000	39.0000
28.6069	1545.0000	39.3065
28.6351	1439.0000	37.9342
28.6634	1515.0000	38.9230
28.6917	1491.0000	38.6135
28.7199	1498.0000	38.7040
28.7482	1528.0000	39.0896
28.7765	1490.0000	38.6005
28.8047	1555.0000	39.4335
28.8330	1506.0000	38.8072
28.8613	1516.0000	38.9358
28.8895	1523.0000	39.0256
28.9178	1526.0000	39.0640
28.9461	1414.0000	37.6032
28.9743	1509.0000	38.8458
29.0026	1462.0000	38.2361
29.0308	1508.0000	38.8330
29.0591	1501.0000	38.7427
29.0874	1536.0000	39.1918
29.1156	1508.0000	38.8330
29.1439	1506.0000	38.8072
29.1722	1525.0000	39.0512
29.2004	1401.0000	37.4299
29.2287	1480.0000	38.4708
29.2570	1413.0000	37.5899
29.2852	1525.0000	39.0512
29.3135	1443.0000	37.9868
29.3418	1460.0000	38.2099
29.3700	1456.0000	38.1576
29.3983	1518.0000	38.9615
29.4266	1532.0000	39.1408
29.4548	1464.0000	38.2623
29.4831	1514.0000	38.9102
29.5114	1465.0000	38.2753
29.5396	1506.0000	38.8072
29.5679	1427.0000	37.7757
29.5962	1440.0000	37.9473
29.6244	1437.0000	37.9078
29.6527	1428.0000	37.7889
29.6810	1511.0000	38.8716
29.7092	1432.0000	37.8418
29.7375	1527.0000	39.0768
29.7658	1430.0000	37.8153
29.7940	1457.0000	38.1707
29.8223	1449.0000	38.0657
29.8505	1387.0000	37.2424
29.8788	1424.0000	37.7359
29.9071	1451.0000	38.0920
29.9353	1477.0000	38.4318
29.9636	1476.0000	38.4187
29.9919	1411.0000	37.5633
30.0201	1454.0000	38.1314
30.0484	1379.0000	37.1349
30.0767	1431.0000	37.8286
30.1049	1400.0000	37.4166
30.1332	1433.0000	37.8550
30.1615	1431.0000	37.8286
30.1897	1445.0000	38.0132
30.2180	1467.0000	38.3014
30.2463	1441.0000	37.9605
30.2745	1391.0000	37.2961
30.3028	1383.0000	37.1887
30.3311	1351.0000	36.7560
30.3593	1444.0000	38.0000
30.3876	1405.0000	37.4833
30.4159	1442.0000	37.9737
30.4441	1449.0000	38.0657
30.4724	1433.0000	37.8550
30.5007	1455.0000	38.1445
30.5289	1447.0000	38.0395
30.5572	1435.0000	37.8814
30.5855	1367.0000	36.9730
30.6137	1368.0000	36.9865
30.6420	1429.0000	37.8021
30.6702	1392.0000	37.3095
30.6985	1364.0000	36.9324
30.7268	1343.0000	36.6470
30.7550	1375.0000	37.0810
30.7833	1419.0000	37.6696
30.8116	1447.0000	38.0395
30.8398	1428.0000	37.7889
30.8681	1418.0000	37.6563
30.8964	1437.0000	37.9078
30.9246	1368.0000	36.9865
30.9529	1415.0000	37.6165
30.9812	1454.0000	38.1314
31.0094	1347.0000	36.7015
31.0377	1379.0000	37.1349
31.0660	1338.0000	36.5787
31.0942	1391.0000	37.2961
31.1225	1371.0000	37.0270
31.1508	1336.0000	36.5513
31.1790	1378.0000	37.1214
31.2073	1401.0000	37.4299
31.2356	1370.0000	37.0135
31.2638	1414.0000	37.6032
31.2921	1388.0000	37.2559
31.3204	1374.0000	37.0675
31.3486	1410.0000	37.5500
31.3769	1443.0000	37.9868
31.4052	1386.0000	37.2290
31.4334	1364.0000	36.9324
31.4617	1302.0000	36.0832
31.4900	1336.0000	36.5513
31.5182	1332.0000	36.4966
31.5465	1406.0000	37.4967
31.5747	1318.0000	36.3043
31.6030	1346.0000	36.6879
31.6313	1304.0000	36.1109
31.6595	1343.0000	36.6470
31.6878	1368.0000	36.9865
31.7161	1425.0000	37.7492
31.7443	1460.0000	38.2099
31.7726	1363.0000	36.9188
31.8009	1336.0000	36.5513
31.8291	1335.0000	36.5377
31.8574	1371.0000	37.0270
31.8857	1314.0000	36.2491
31.9139	1359.0000	36.8646
31.9422	1307.0000	36.1525
31.9705	1326.0000	36.4143
31.9987	1348.0000	36.7151
32.0270	1322.0000	36.3593
32.0553	1343.0000	36.6470
32.0835	1286.0000	35.8608
32.1118	1390.0000	37.2827
32.1401	1321.0000	36.3456
32.1683	1373.0000	37.0540
32.1966	1291.0000	35.9305
32.2249	1287.0000	35.8748
32.2531	1342.0000	36.6333
32.2814	1333.0000	36.5103
32.3097	1328.0000	36.4417
32.3379	1280.0000	35.7771
32.3662	1333.0000	36.5103
32.3944	1318.0000	36.3043
32.4227	1332.0000	36.4966
32.4510	1324.0000	36.3868
32.4792	1395.0000	37.3497
32.5075	1323.0000	36.3731
32.5358	1330.0000	36.4692
32.5640	1345.0000	36.6742
32.5923	1414.0000	37.6032
32.6206	1320.0000	36.3318
32.6488	1358.0000	36.8511
32.6771	1344.0000	36.6606
32.7054	1325.0000	36.4005
32.7336	1288.0000	35.8887
32.7619	1240.0000	35.2136
32.7902	1278.0000	35.7491
32.8184	1309.0000	36.1801
32.8467	1328.0000	36.4417
32.8750	1394.0000	37.3363
32.9032	1342.0000	36.6333
32.9315	1292.0000	35.9444
32.9598	1329.0000	36.4555
32.9880	1284.0000	35.8329
33.0163	1377.0000	37.1080
33.0446	1302.0000	36.0832
33.0728	1326.0000	36.4143
33.1011	1260.0000	35.4965
33.1294	1291.0000	35.9305
33.1576	1339.0000	36.5923
33.1859	1269.0000	35.6230
33.2142	1281.0000	35.7911
33.2424	1248.0000	35.3270
33.2707	1311.0000	36.2077
33.2989	1379.0000	37.1349
33.3272	1375.0000	37.0810
33.3555	1288.0000	35.8887
33.3837	1314.0000	36.2491
33.4120	1305.0000	36.1248
33.4403	1391.0000	37.2961
33.4685	1255.0000	35.4260
33.4968	1350.0000	36.7423
33.5251	1266.0000	35.5809
33.5533	1276.0000	35.7211
33.5816	1292.0000	35.9444
33.6099	1341.0000	36.6197
33.6381	1292.0000	35.9444
33.6664	1291.0000	35.9305
33.6947	1264.0000	35.5528
33.7229	1277.0000	35.7351
33.7512	1266.0000	35.5809
33.7795	1275.0000	35.7071
33.8077	1282.0000	35.8050
33.8360	1290.0000	35.9166
33.8643	1281.0000	35.7911
33.8925	1405.0000	37.4833
33.9208	1362.0000	36.9053
33.9491	1314.0000	36.2491
33.9773	1297.0000	36.0139
34.0056	1221.0000	34.9428
34.0339	1344.0000	36.6606
34.0621	1299.0000	36.0416
34.0904	1289.0000	35.9026
34.1186	1284.0000	35.8329
34.1469	1326.0000	36.4143
34.1752	1299.0000	36.0416
34.2034	1221.0000	34.9428
34.2317	1325.0000	36.4005
34.2600	1378.0000	37.1214
34.2882	1315.0000	36.2629
34.3165	1214.0000	34.8425
34.3448	1308.0000	36.1663
34.3730	1309.0000	36.1801
34.4013	1269.0000	35.6230
34.4296	1292.0000	35.9444
34.4578	1303.0000	36.0971
34.4861	1304.0000	36.1109
34.5144	1293.0000	35.9583
34.5426	1305.0000	36.1248
34.5709	1296.0000	36.0000
34.5992	1415.0000	37.6165
34.6274	1290.0000	35.9166
34.6557	1401.0000	37.4299
34.6840	1335.0000	36.5377
34.7122	1287.0000	35.8748
34.7405	1323.0000	36.3731
34.7688	1331.0000	36.4829
34.7970	1329.0000	36.4555
34.8253	1391.0000	37.2961
34.8536	1401.0000	37.4299
34.8818	1361.0000	36.8917
34.9101	1357.0000	36.8375
34.9383	1414.0000	37.6032
34.9666	1346.0000	36.6879
34.9949	1326.0000	36.4143
35.0231	1395.0000	37.3497
35.0514	1407.0000	37.5100
35.0797	1381.0000	37.1618
35.1079	1491.0000	38.6135
35.1362	1405.0000	37.4833
35.1645	1349.0000	36.7287
35.1927	1363.0000	36.9188
35.2210	1411.0000	37.5633
35.2493	1458.0000	38.1838
35.2775	1444.0000	38.0000
35.3058	1471.0000	38.3536
35.3341	1509.0000	38.8458
35.3623	1428.0000	37.7889
35.3906	1517.0000	38.9487
35.4189	1536.0000	39.1918
35.4471	1559.0000	39.4842
35.4754	1515.0000	38.9230
35.5037	1548.0000	39.3446
35.5319	1589.0000	39.8623
35.5602	1574.0000	39.6737
35.5885	1620.0000	40.2492
35.6167	1694.0000	41.1582
35.6450	1734.0000	41.6413
35.6733	1684.0000	41.0366
35.7015	1810.0000	42.5441
35.7298	1786.0000	42.2611
35.7581	1800.0000	42.4264
35.7863	1930.0000	43.9318
35.8146	1902.0000	43.6119
35.8428	2000.0000	44.7214
35.8711	2040.0000	45.1664
35.8994	2094.0000	45.7602
35.9276	2177.0000	46.6583
35.9559	2230.0000	47.2229
35.9842	2292.0000	47.8748
36.0124	2308.0000	48.0416
36.0407	2361.0000	48.5901
36.0690	2387.0000	48.8569
36.0972	2402.0000	49.0102
36.1255	2469.0000	49.6890
36.1538	2383.0000	48.8160
36.1820	2396.0000	48.9490
36.2103	2460.0000	49.5984
36.2386	2533.0000	50.3289
36.2668	2403.0000	49.0204
36.2951	2422.0000	49.2138
36.3234	2357.0000	48.5489
36.3516	2176.0000	46.6476
36.3799	2152.0000	46.3897
36.4082	2167.0000	46.5510
36.4364	2185.0000	46.7440
36.4647	2003.0000	44.7549
36.4930	2038.0000	45.1442
36.5212	2052.0000	45.2990
36.5495	1877.0000	43.3244
36.5778	1947.0000	44.1248
36.6060	1945.0000	44.1022
36.6343	1872.0000	43.2666
36.6625	1873.0000	43.2782
36.6908	1819.0000	42.6497
36.7191	1776.0000	42.1426
36.7473	1791.0000	42.3202
36.7756	1746.0000	41.7852
36.8039	1680.0000	40.9878
36.8321	1693.0000	41.1461
36.8604	1691.0000	41.1218
36.8887	1693.0000	41.1461
36.9169	1768.0000	42.0476
36.9452	1611.0000	40.1373
36.9735	1703.0000	41.2674
37.0017	1720.0000	41.4729
37.0300	1615.0000	40.1871
37.0583	1629.0000	40.3609
37.0865	1599.0000	39.9875
37.1148	1598.0000	39.9750
37.1431	1671.0000	40.8779
37.1713	1605.0000	40.0625
37.1996	1614.0000	40.1746
37.2279	1631.0000	40.3856
37.2561	1604.0000	40.0500
37.2844	1627.0000	40.3361
37.3127	1668.0000	40.8412
37.3409	1740.0000	41.7133
37.3692	1647.0000	40.5832
37.3975	1652.0000	40.6448
37.4257	1642.0000	40.5216
37.4540	1715.0000	41.4126
37.4823	1731.0000	41.6053
37.5105	1688.0000	41.0853
37.5388	1704.0000	41.2795
37.5670	1710.0000	41.3521
37.5953	1748.0000	41.8091
37.6236	1785.0000	42.2493
37.6518	1873.0000	43.2782
37.6801	1909.0000	43.6921
37.7084	1930.0000	43.9318
37.7366	1906.0000	43.6578
37.7649	1915.0000	43.7607
37.7932	1963.0000	44.3058
37.8214	2087.0000	45.6837
37.8497	2088.0000	45.6946
37.8780	2215.0000	47.0638
37.9062	2280.0000	47.7493
37.9345	2414.0000	49.1325
37.9628	2474.0000	49.7393
37.9910	2645.0000	51.4296
38.0193	2818.0000	53.0848
38.0476	3024.0000	54.9909
38.0758	3243.0000	56.9473
38.1041	3503.0000	59.1861
38.1324	3862.0000	62.1450
38.1606	4093.0000	63.9766
38.1889	4453.0000	66.7308
38.2172	4721.0000	68.7095
38.2454	5173.0000	71.9236
38.2737	5509.0000	74.2226
38.3020	6018.0000	77.5758
38.3302	6470.0000	80.4363
38.3585	6833.0000	82.6620
38.3867	7276.0000	85.2995
38.4150	7402.0000	86.0349
38.4433	8044.0000	89.6883
38.4715	8272.0000	90.9505
38.4998	8690.0000	93.2202
38.5281	8921.0000	94.4510
38.5563	8937.0000	94.5357
38.5846	9158.0000	95.6974
38.6129	9114.0000	95.4673
38.6411	8944.0000	94.5727
38.6694	8862.0000	94.1382
38.6977	8515.0000	92.2768
38.7259	8263.0000	90.9010
38.7542	8148.0000	90.2663
38.7825	7946.0000	89.1403
38.8107	7375.0000	85.8778
38.8390	7241.0000	85.0941
38.8673	6907.0000	83.1084
38.8955	6461.0000	80.3803
38.9238	6170.0000	78.5493
38.9521	5741.0000	75.7694
38.9803	5542.0000	74.4446
39.0086	5185.0000	72.0069
39.0369	4766.0000	69.0362
39.0651	4616.0000	67.9412
39.0934	4524.0000	67.2607
39.1217	4231.0000	65.0461
39.1499	3983.0000	63.1110
39.1782	3884.0000	62.3217
39.2064	3790.0000	61.5630
39.2347	3506.0000	59.2115
39.2630	3395.0000	58.2666
39.2912	3437.0000	58.6259
39.3195	3246.0000	56.9737
39.3478	3132.0000	55.9643
39.3760	3129.0000	55.9375
39.4043	3025.0000	55.0000
39.4326	2935.0000	54.1756
39.4608	2860.0000	53.4790
39.4891	2763.0000	52.5642
39.5174	2827.0000	53.1695
39.5456	2811.0000	53.0189
39.5739	2686.0000	51.8266
39.6022	2685.0000	51.8170
39.6304	2692.0000	51.8845
39.6587	2707.0000	52.0288
39.6870	2646.0000	51.4393
39.7152	2556.0000	50.5569
39.7435	2628.0000	51.2640
39.7718	2762.0000	52.5547
39.8000	2735.0000	52.2972
39.8283	3017.0000	54.9272
39.8566	3152.0000	56.1427
39.8848	3283.0000	57.2975
39.9131	3450.0000	58.7367
39.9414	3818.0000	61.7900
39.9696	4344.0000	65.9090
39.9979	4839.0000	69.5629
40.0262	5609.0000	74.8933
40.0544	6669.0000	81.6639
40.0827	8146.0000	90.2552
40.1109	9856.0000	99.2774
40.1392	11986.0000	109.4806
40.1675	14242.0000	119.3399
40.1957	15876.0000	126.0000
40.2240	16711.0000	129.2710
40.2523	16951.0000	130.1960
40.2805	16413.0000	128.1132
40.3088	14889.0000	122.0205
40.3371	13302.0000	115.3343
40.3653	11162.0000	105.6504
40.3936	9474.0000	97.3345
40.4219	7844.0000	88.5664
40.4501	6580.0000	81.1172
40.4784	5300.0000	72.8011
40.5067	4493.0000	67.0298
40.5349	3913.0000	62.5540
40.5632	3379.0000	58.1292
40.5915	2965.0000	54.4518
40.6197	2758.0000	52.5167
40.6480	2541.0000	50.4083
40.6763	2315.0000	48.1144
40.7045	2312.0000	48.0833
40.7328	2089.0000	45.7056
40.7611	2057.0000	45.3542
40.7893	1993.0000	44.6430
40.8176	1865.0000	43.1856
40.8459	1878.0000	43.3359
40.8741	1760.0000	41.9524
40.9024	1762.0000	41.9762
40.9306	1618.0000	40.2244
40.9589	1682.0000	41.0122
40.9872	1664.0000	40.7922
41.0154	1621.0000	40.2616
41.0437	1613.0000	40.1622
41.0720	1683.0000	41.0244
41.1002	1563.0000	39.5348
41.1285	1594.0000	39.9249
41.1568	1528.0000	39.0896
41.1850	1596.0000	39.9500
41.2133	1522.0000	39.0128
41.2416	1533.0000	39.1535
41.2698	1512.0000	38.8844
41.2981	1486.0000	38.5487
41.3264	1564.0000	39.5474
41.3546	1570.0000	39.6232
41.3829	1485.0000	38.5357
41.4112	1567.0000	39.5854
41.4394	1583.0000	39.7869
41.4677	1559.0000	39.4842
41.4960	1511.0000	38.8716
41.5242	1570.0000	39.6232
41.5525	1583.0000	39.7869
41.5808	1628.0000	40.3485
41.6090	1557.0000	39.4588
41.6373	1577.0000	39.7115
41.6656	1558.0000	39.4715
41.6938	1636.0000	40.4475
41.7221	1548.0000	39.3446
41.7504	1610.0000	40.1248
41.7786	1700.0000	41.2311
41.8069	1734.0000	41.6413
41.8351	1651.0000	40.6325
41.8634	1699.0000	41.2189
41.8917	1738.0000	41.6893
41.9199	1797.0000	42.3910
41.9482	1807.0000	42.5088
41.9765	1890.0000	43.4741
42.0047	1885.0000	43.4166
42.0330	1916.0000	43.7721
42.0613	1983.0000	44.5309
42.0895	1960.0000	44.2719
42.1178	2085.0000	45.6618
42.1461	2068.0000	45.4753
42.1743	2106.0000	45.8912
42.2026	2154.0000	46.4112
42.2309	2310.0000	48.0625
42.2591	2358.0000	48.5592
42.2874	2386.0000	48.8467
42.3157	2466.0000	49.6588
42.3439	2541.0000	50.4083
42.3722	2611.0000	51.0979
42.4005	2676.0000	51.7301
42.4287	2770.0000	52.6308
42.4570	2841.0000	53.3010
42.4853	2851.0000	53.3948
42.5135	2822.0000	53.1225
42.5418	2922.0000	54.0555
42.5701	3034.0000	55.0818
42.5983	2854.0000	53.4228
42.6266	2964.0000	54.4426
42.6548	3001.0000	54.7814
42.6831	2786.0000	52.7826
42.7114	2867.0000	53.5444
42.7396	2824.0000	53.1413
42.7679	2774.0000	52.6688
42.7962	2717.0000	52.1249
42.8244	2617.0000	51.1566
42.8527	2541.0000	50.4083
42.8810	2544.0000	50.4381
42.9092	2390.0000	48.8876
42.9375	2362.0000	48.6004
42.9658	2326.0000	48.2286
42.9940	2144.0000	46.3033
43.0223	2149.0000	46.3573
43.0506	2149.0000	46.3573
43.0788	2039.0000	45.1553
43.1071	2008.0000	44.8107
43.1354	2067.0000	45.4643
43.1636	1920.0000	43.8178
43.1919	1926.0000	43.8862
43.2202	1848.0000	42.9884
43.2484	1815.0000	42.6028
43.2767	1801.0000	42.4382
43.3050	1638.0000	40.4722
43.3332	1789.0000	42.2966
43.3615	1667.0000	40.8289
43.3898	1662.0000	40.7676
43.4180	1612.0000	40.1497
43.4463	1544.0000	39.2938
43.4745	1598.0000	39.9750
43.5028	1586.0000	39.8246
43.5311	1443.0000	37.9868
43.5593	1578.0000	39.7240
43.5876	1456.0000	38.1576
43.6159	1394.0000	37.3363
43.6441	1458.0000	38.1838
43.6724	1434.0000	37.8682
43.7007	1442.0000	37.9737
43.7289	1426.0000	37.7624
43.7572	1394.0000	37.3363
43.7855	1365.0000	36.9459
43.8137	1298.0000	36.0278
43.8420	1282.0000	35.8050
43.8703	1313.0000	36.2353
43.8985	1264.0000	35.5528
43.9268	1320.0000	36.3318
43.9551	1295.0000	35.9861
43.9833	1294.0000	35.9722
44.0116	1296.0000	36.0000
44.0399	1274.0000	35.6931
44.0681	1334.0000	36.5240
44.0964	1274.0000	35.6931
44.1247	1229.0000	35.0571
44.1529	1239.0000	35.1994
44.1812	1250.0000	35.3553
44.2095	1236.0000	35.1568
44.2377	1197.0000	34.5977
44.2660	1261.0000	35.5106
44.2943	1239.0000	35.1994
44.3225	1229.0000	35.0571
44.3508	1243.0000	35.2562
44.3790	1253.0000	35.3977
44.4073	1278.0000	35.7491
44.4356	1293.0000	35.9583
44.4638	1256.0000	35.4401
44.4921	1274.0000	35.6931
44.5204	1241.0000	35.2278
44.5486	1254.0000	35.4119
44.5769	1251.0000	35.3695
44.6052	1189.0000	34.4819
44.6334	1233.0000	35.1141
44.6617	1231.0000	35.0856
44.6900	1171.0000	34.2199
44.7182	1198.0000	34.6121
44.7465	1213.0000	34.8281
44.7748	1180.0000	34.3511
44.8030	1151.0000	33.9264
44.8313	1132.0000	33.6452
44.8596	1142.0000	33.7935
44.8878	1128.0000	33.5857
44.9161	1082.0000	32.8938
44.9444	1090.0000	33.0151
44.9726	1036.0000	32.1870
45.0009	1052.0000	32.4345
45.0292	1112.0000	33.3467
45.0574	1103.0000	33.2114
45.0857	1094.0000	33.0757
45.1140	1038.0000	32.2180
45.1422	1039.0000	32.2335
45.1705	1002.0000	31.6544
45.1987	1024.0000	32.0000
45.2270	969.0000	31.1288
45.2553	1035.0000	32.1714
45.2835	959.0000	30.9677
45.3118	1017.0000	31.8904
45.3401	928.0000	30.4631
45.3683	943.0000	30.7083
45.3966	912.0000	30.1993
45.4249	956.0000	30.9192
45.4531	965.0000	31.0644
45.4814	904.0000	30.0666
45.5097	929.0000	30.4795
45.5379	902.0000	30.0333
45.5662	917.0000	30.2820
45.5945	897.0000	29.9500
45.6227	937.0000	30.6105
45.6510	892.0000	29.8664
45.6793	970.0000	31.1448
45.7075	962.0000	31.0161
45.7358	879.0000	29.6479
45.7641	889.0000	29.8161
45.7923	915.0000	30.2490
45.8206	925.0000	30.4138
45.8489	887.0000	29.7825
45.8771	896.0000	29.9333
45.9054	885.0000	29.7489
45.9337	857.0000	29.2746
45.9619	836.0000	28.9137
45.9902	875.0000	29.5804
46.0184	889.0000	29.8161
46.0467	931.0000	30.5123
46.0750	862.0000	29.3598
46.1032	846.0000	29.0861
46.1315	905.0000	30.0832
46.1598	807.0000	28.4077
46.1880	889.0000	29.8161
46.2163	844.0000	29.0517
46.2446	832.0000	28.8444
46.2728	880.0000	29.6648
46.3011	852.0000	29.1890
46.3294	846.0000	29.0861
46.3576	874.0000	29.5635
46.3859	858.0000	29.2916
46.4142	877.0000	29.6142
46.4424	887.0000	29.7825
46.4707	812.0000	28.4956
46.4990	859.0000	29.3087
46.5272	858.0000	29.2916
46.5555	827.0000	28.7576
46.5838	820.0000	28.6356
46.6120	803.0000	28.3373
46.6403	833.0000	28.8617
46.6686	816.0000	28.5657
46.6968	859.0000	29.3087
46.7251	849.0000	29.1376
46.7534	793.0000	28.1603
46.7816	807.0000	28.4077
46.8099	831.0000	28.8271
46.8382	873.0000	29.5466
46.8664	839.0000	28.9655
46.8947	777.0000	27.8747
46.9229	876.0000	29.5973
46.9512	801.0000	28.3019
46.9795	851.0000	29.1719
47.0077	860.0000	29.3258
47.0360	796.0000	28.2135
47.0643	853.0000	29.2062
47.0925	824.0000	28.7054
47.1208	808.0000	28.4253
47.1491	777.0000	27.8747
47.1773	793.0000	28.1603
47.2056	802.0000	28.3196
47.2339	778.0000	27.8927
47.2621	800.0000	28.2843
47.2904	821.0000	28.6531
47.3187	834.0000	28.8791
47.3469	791.0000	28.1247
47.3752	791.0000	28.1247
47.4035	828.0000	28.7750
47.4317	824.0000	28.7054
47.4600	844.0000	29.0517
47.4883	777.0000	27.8747
47.5165	799.0000	28.2666
47.5448	775.0000	27.8388
47.5731	841.0000	29.0000
47.6013	770.0000	27.7489
47.6296	829.0000	28.7924
47.6579	803.0000	28.3373
47.6861	801.0000	28.3019
47.7144	775.0000	27.8388
47.7426	743.0000	27.2580
47.7709	772.0000	27.7849
47.7992	785.0000	28.0179
47.8274	760.0000	27.5681
47.8557	821.0000	28.6531
47.8840	786.0000	28.0357
47.9122	756.0000	27.4955
47.9405	738.0000	27.1662
47.9688	770.0000	27.7489
47.9970	749.0000	27.3679
48.0253	744.0000	27.2764
48.0536	707.0000	26.5895
48.0818	731.0000	27.0370
48.1101	780.0000	27.9285
48.1384	751.0000	27.4044
48.1666	739.0000	27.1846
48.1949	752.0000	27.4226
48.2232	768.0000	27.7128
48.2514	794.0000	28.1780
48.2797	743.0000	27.2580
48.3080	809.0000	28.4429
48.3362	767.0000	27.6948
48.3645	757.0000	27.5136
48.3928	807.0000	28.4077
48.4210	801.0000	28.3019
48.4493	749.0000	27.3679
48.4776	722.0000	26.8701
48.5058	764.0000	27.6405
48.5341	761.0000	27.5862
48.5624	793.0000	28.1603
48.5906	766.0000	27.6767
48.6189	742.0000	27.2397
48.6471	730.0000	27.0185
48.6754	754.0000	27.4591
48.7037	783.0000	27.9821
48.7319	772.0000	27.7849
48.7602	787.0000	28.0535
48.7885	720.0000	26.8328
48.8167	779.0000	27.9106
48.8450	735.0000	27.1109
48.8733	724.0000	26.9072
48.9015	775.0000	27.8388
48.9298	800.0000	28.2843
48.9581	725.0000	26.9258
48.9863	731.0000	27.0370
49.0146	775.0000	27.8388
49.0429	715.0000	26.7395
49.0711	694.0000	26.3439
49.0994	678.0000	26.0384
49.1277	722.0000	26.8701
49.1559	773.0000	27.8029
49.1842	713.0000	26.7021
49.2125	709.0000	26.6271
49.2407	741.0000	27.2213
49.2690	722.0000	26.8701
49.2973	758.0000	27.5318
49.3255	710.0000	26.6458
49.3538	743.0000	27.2580
49.3821	757.0000	27.5136
49.4103	720.0000	26.8328
49.4386	799.0000	28.2666
49.4668	732.0000	27.0555
49.4951	794.0000	28.1780
49.5234	756.0000	27.4955
49.5516	770.0000	27.7489
49.5799	695.0000	26.3629
49.6082	746.0000	27.3130
49.6364	730.0000	27.0185
49.6647	766.0000	27.6767
49.6930	736.0000	27.1293
49.7212	739.0000	27.1846
49.7495	731.0000	27.0370
49.7778	740.0000	27.2029
49.8060	774.0000	27.8209
49.8343	738.0000	27.1662
49.8626	710.0000	26.6458
49.8908	731.0000	27.0370
49.9191	733.0000	27.0740
49.9474	723.0000	26.8887
49.9756	687.0000	26.2107
50.0039	715.0000	26.7395
50.0322	704.0000	26.5330
50.0604	665.0000	25.7876
50.0887	761.0000	27.5862
50.1170	725.0000	26.9258
50.1452	732.0000	27.0555
50.1735	699.0000	26.4386
50.2018	768.0000	27.7128
50.2300	735.0000	27.1109
50.2583	698.0000	26.4197
50.2865	718.0000	26.7955
50.3148	704.0000	26.5330
50.3431	777.0000	27.8747
50.3713	734.0000	27.0924
50.3996	683.0000	26.1343
50.4279	739.0000	27.1846
50.4561	731.0000	27.0370
50.4844	720.0000	26.8328
50.5127	697.0000	26.4008
50.5409	726.0000	26.9444
50.5692	758.0000	27.5318
50.5975	726.0000	26.9444
50.6257	695.0000	26.3629
50.6540	693.0000	26.3249
50.6823	718.0000	26.7955
50.7105	714.0000	26.7208
50.7388	684.0000	26.1534
50.7671	746.0000	27.3130
50.7953	695.0000	26.3629
50.8236	728.0000	26.9815
50.8519	639.0000	25.2784
50.8801	742.0000	27.2397
50.9084	687.0000	26.2107
50.9367	752.0000	27.4226
50.9649	702.0000	26.4953
50.9932	685.0000	26.1725
51.0215	733.0000	27.0740
51.0497	707.0000	26.5895
51.0780	689.0000	26.2488
51.1063	724.0000	26.9072
51.1345	673.0000	25.9422
51.1628	661.0000	25.7099
51.1910	710.0000	26.6458
51.2193	738.0000	27.1662
51.2476	667.0000	25.8263
51.2758	705.0000	26.5518
51.3041	702.0000	26.4953
51.3324	685.0000	26.1725
51.3606	776.0000	27.8568
51.3889	682.0000	26.1151
51.4172	694.0000	26.3439
51.4454	721.0000	26.8514
51.4737	729.0000	27.0000
51.5020	775.0000	27.8388
51.5302	705.0000	26.5518
51.5585	703.0000	26.5141
51.5868	722.0000	26.8701
51.6150	739.0000	27.1846
51.6433	711.0000	26.6646
51.6716	720.0000	26.8328
51.6998	723.0000	26.8887
51.7281	659.0000	25.6710
51.7564	693.0000	26.3249
51.7846	708.0000	26.6083
51.8129	669.0000	25.8650
51.8412	684.0000	26.1534
51.8694	714.0000	26.7208
51.8977	707.0000	26.5895
51.9260	656.0000	25.6125
51.9542	729.0000	27.0000
51.9825	680.0000	26.0768
52.0107	667.0000	25.8263
52.0390	693.0000	26.3249
52.0673	707.0000	26.5895
52.0955	682.0000	26.1151
52.1238	745.0000	27.2947
52.1521	701.0000	26.4764
52.1803	693.0000	26.3249
52.2086	729.0000	27.0000
52.2369	662.0000	25.7294
52.2651	712.0000	26.6833
52.2934	674.0000	25.9615
52.3217	693.0000	26.3249
52.3499	736.0000	27.1293
52.3782	677.0000	26.0192
52.4065	666.0000	25.8070
52.4347	712.0000	26.6833
52.4630	698.0000	26.4197
52.4913	687.0000	26.2107
52.5195	698.0000	26.4197
52.5478	744.0000	27.2764
52.5761	757.0000	27.5136
52.6043	697.0000	26.4008
52.6326	693.0000	26.3249
52.6609	710.0000	26.6458
52.6891	693.0000	26.3249
52.7174	704.0000	26.5330
52.7457	735.0000	27.1109
52.7739	710.0000	26.6458
52.8022	702.0000	26.4953
52.8305	701.0000	26.4764
52.8587	671.0000	25.9037
52.8870	732.0000	27.0555
52.9152	746.0000	27.3130
52.9435	701.0000	26.4764
52.9718	689.0000	26.2488
53.0000	696.0000	26.3818
53.0283	733.0000	27.0740
53.0566	679.0000	26.0576
53.0848	709.0000	26.6271
53.1131	715.0000	26.7395
53.1414	676.0000	26.0000
53.1696	700.0000	26.4575
53.1979	699.0000	26.4386
53.2262	680.0000	26.0768
53.2544	647.0000	25.4362
53.2827	728.0000	26.9815
53.3110	696.0000	26.3818
53.3392	730.0000	27.0185
53.3675	695.0000	26.3629
53.3958	709.0000	26.6271
53.4240	736.0000	27.1293
53.4523	679.0000	26.0576
53.4806	726.0000	26.9444
53.5088	632.0000	25.1396
53.5371	681.0000	26.0960
53.5654	700.0000	26.4575
53.5936	648.0000	25.4558
53.6219	682.0000	26.1151
53.6502	753.0000	27.4408
53.6784	772.0000	27.7849
53.7067	766.0000	27.6767
53.7349	734.0000	27.0924
53.7632	732.0000	27.0555
53.7915	699.0000	26.4386
53.8197	768.0000	27.7128
53.8480	710.0000	26.6458
53.8763	709.0000	26.6271
53.9045	716.0000	26.7582
53.9328	665.0000	25.7876
53.9611	745.0000	27.2947
53.9893	701.0000	26.4764
54.0176	722.0000	26.8701
54.0459	754.0000	27.4591
54.0741	718.0000	26.7955
54.1024	721.0000	26.8514
54.1307	704.0000	26.5330
54.1589	669.0000	25.8650
54.1872	761.0000	27.5862
54.2155	803.0000	28.3373
54.2437	740.0000	27.2029
54.2720	756.0000	27.4955
54.3003	784.0000	28.0000
54.3285	796.0000	28.2135
54.3568	808.0000	28.4253
54.3851	781.0000	27.9464
54.4133	793.0000	28.1603
54.4416	757.0000	27.5136
54.4699	812.0000	28.4956
54.4981	842.0000	29.0172
54.5264	864.0000	29.3939
54.5546	835.0000	28.8964
54.5829	841.0000	29.0000
54.6112	874.0000	29.5635
54.6394	897.0000	29.9500
54.6677	938.0000	30.6268
54.6960	951.0000	30.8383
54.7242	915.0000	30.2490
54.7525	910.0000	30.1662
54.7808	1007.0000	31.7333
54.8090	1053.0000	32.4500
54.8373	1058.0000	32.5269
54.8656	1065.0000	32.6343
54.8938	1036.0000	32.1870
54.9221	1029.0000	32.0780
54.9504	1073.0000	32.7567
54.9786	1105.0000	33.2415
55.0069	1123.0000	33.5112
55.0352	1160.0000	34.0588
55.0634	1234.0000	35.1283
55.0917	1231.0000	35.0856
55.1200	1239.0000	35.1994
55.1482	1298.0000	36.0278
55.1765	1351.0000	36.7560
55.2048	1340.0000	36.6060
55.2330	1377.0000	37.1080
55.2613	1399.0000	37.4032
55.2896	1411.0000	37.5633
55.3178	1462.0000	38.2361
55.3461	1476.0000	38.4187
55.3744	1495.0000	38.6652
55.4026	1552.0000	39.3954
55.4309	1491.0000	38.6135
55.4591	1491.0000	38.6135
55.4874	1521.0000	39.0000
55.5157	1518.0000	38.9615
55.5439	1534.0000	39.1663
55.5722	1581.0000	39.7618
55.6005	1570.0000	39.6232
55.6287	1524.0000	39.0384
55.6570	1564.0000	39.5474
55.6853	1554.0000	39.4208
55.7135	1525.0000	39.0512
55.7418	1607.0000	40.0874
55.7701	1534.0000	39.1663
55.7983	1513.0000	38.8973
55.8266	1554.0000	39.4208
55.8549	1539.0000	39.2301
55.8831	1506.0000	38.8072
55.9114	1507.0000	38.8201
55.9397	1432.0000	37.8418
55.9679	1422.0000	37.7094
55.9962	1430.0000	37.8153
56.0245	1436.0000	37.8946
56.0527	1433.0000	37.8550
56.0810	1377.0000	37.1080
56.1093	1331.0000	36.4829
56.1375	1268.0000	35.6090
56.1658	1323.0000	36.3731
56.1941	1262.0000	35.5246
56.2223	1260.0000	35.4965
56.2506	1235.0000	35.1426
56.2788	1185.0000	34.4238
56.3071	1228.0000	35.0428
56.3354	1169.0000	34.1906
56.3636	1247.0000	35.3129
56.3919	1131.0000	33.6303
56.4202	1152.0000	33.9411
56.4484	1184.0000	34.4093
56.4767	1094.0000	33.0757
56.5050	1166.0000	34.1467
56.5332	1115.0000	33.3916
56.5615	1030.0000	32.0936
56.5898	1064.0000	32.6190
56.6180	993.0000	31.5119
56.6463	1015.0000	31.8591
56.6746	1016.0000	31.8748
56.7028	1012.0000	31.8119
56.7311	1020.0000	31.9374
56.7594	1047.0000	32.3574
56.7876	978.0000	31.2730
56.8159	1007.0000	31.7333
56.8442	1007.0000	31.7333
56.8724	951.0000	30.8383
56.9007	1021.0000	31.9531
56.9290	942.0000	30.6920
56.9572	1025.0000	32.0156
56.9855	933.0000	30.5450
57.0138	916.0000	30.2655
57.0420	945.0000	30.7409
57.0703	895.0000	29.9166
57.0986	933.0000	30.5450
57.1268	862.0000	29.3598
57.1551	917.0000	30.2820
57.1833	1006.0000	31.7175
57.2116	930.0000	30.4959
57.2399	879.0000	29.6479
57.2681	906.0000	30.0998
57.2964	876.0000	29.5973
57.3247	849.0000	29.1376
57.3529	863.0000	29.3769
57.3812	873.0000	29.5466
57.4095	933.0000	30.5450
57.4377	894.0000	29.8998
57.4660	859.0000	29.3087
57.4943	832.0000	28.8444
57.5225	833.0000	28.8617
57.5508	856.0000	29.2575
57.5791	798.0000	28.2489
57.6073	893.0000	29.8831
57.6356	891.0000	29.8496
57.6639	891.0000	29.8496
57.6921	925.0000	30.4138
57.7204	954.0000	30.8869
57.7487	926.0000	30.4302
57.7769	997.0000	31.5753
57.8052	985.0000	31.3847
57.8335	1028.0000	32.0624
57.8617	1126.0000	33.5559
57.8900	1178.0000	34.3220
57.9183	1200.0000	34.6410
57.9465	1323.0000	36.3731
57.9748	1520.0000	38.9872
58.0030	1561.0000	39.5095
58.0313	1703.0000	41.2674
58.0596	1967.0000	44.3509
58.0878	2209.0000	47.0000
58.1161	2428.0000	49.2747
58.1444	2697.0000	51.9326
58.1726	2917.0000	54.0093
58.2009	3049.0000	55.2178
58.2292	3186.0000	56.4447
58.2574	3159.0000	56.2050
58.2857	3104.0000	55.7136
58.3140	2909.0000	53.9351
58.3422	2738.0000	52.3259
58.3705	2588.0000	50.8724
58.3988	2384.0000	48.8262
58.4270	2045.0000	45.2217
58.4553	1868.0000	43.2204
58.4836	1711.0000	41.3642
58.5118	1521.0000	39.0000
58.5401	1434.0000	37.8682
58.5684	1224.0000	34.9857
58.5966	1189.0000	34.4819
58.6249	1087.0000	32.9697
58.6532	1084.0000	32.9242
58.6814	1028.0000	32.0624
58.7097	889.0000	29.8161
58.7380	860.0000	29.3258
58.7662	871.0000	29.5127
58.7945	825.0000	28.7228
58.8227	772.0000	27.7849
58.8510	736.0000	27.1293
58.8793	787.0000	28.0535
58.9075	752.0000	27.4226
58.9358	743.0000	27.2580
58.9641	704.0000	26.5330
58.9923	715.0000	26.7395
59.0206	747.0000	27.3313
59.0489	730.0000	27.0185
59.0771	715.0000	26.7395
59.1054	705.0000	26.5518
59.1337	665.0000	25.7876
59.1619	679.0000	26.0576
59.1902	674.0000	25.9615
59.2185	701.0000	26.4764
59.2467	729.0000	27.0000
59.2750	678.0000	26.0384
59.3033	695.0000	26.3629
59.3315	678.0000	26.0384
59.3598	657.0000	25.6320
59.3881	670.0000	25.8844
59.4163	673.0000	25.9422
59.4446	641.0000	25.3180
59.4729	673.0000	25.9422
59.5011	645.0000	25.3969
59.5294	701.0000	26.4764
59.5577	673.0000	25.9422
59.5859	669.0000	25.8650
59.6142	664.0000	25.7682
59.6425	616.0000	24.8193
59.6707	625.0000	25.0000
59.6990	638.0000	25.2587
59.7272	668.0000	25.8457
59.7555	661.0000	25.7099
59.7838	695.0000	26.3629
59.8120	686.0000	26.1916
59.8403	632.0000	25.1396
59.8686	684.0000	26.1534
59.8968	614.0000	24.7790
59.9251	663.0000	25.7488
59.9534	668.0000	25.8457
59.9816	623.0000	24.9600
60.0099	641.0000	25.3180
60.0382	615.0000	24.7992
60.0664	607.0000	24.6374
60.0947	627.0000	25.0400
60.1230	667.0000	25.8263
60.1512	677.0000	26.0192
60.1795	643.0000	25.3574
60.2078	623.0000	24.9600
60.2360	658.0000	25.6515
60.2643	645.0000	25.3969
60.2926	645.0000	25.3969
60.3208	638.0000	25.2587
60.3491	663.0000	25.7488
60.3774	646.0000	25.4165
60.4056	624.0000	24.9800
60.4339	618.0000	24.8596
60.4622	629.0000	25.0799
60.4904	638.0000	25.2587
60.5187	673.0000	25.9422
60.5469	665.0000	25.7876
60.5752	591.0000	24.3105
60.6035	624.0000	24.9800
60.6317	655.0000	25.5930
60.6600	690.0000	26.2679
60.6883	671.0000	25.9037
60.7165	653.0000	25.5539
60.7448	626.0000	25.0200
60.7731	647.0000	25.4362
60.8013	688.0000	26.2298
60.8296	631.0000	25.1197
60.8579	672.0000	25.9230
60.8861	624.0000	24.9800
60.9144	629.0000	25.0799
60.9427	632.0000	25.1396
60.9709	608.0000	24.6577
60.9992	652.0000	25.5343
61.0275	655.0000	25.5930
61.0557	650.0000	25.4951
61.0840	641.0000	25.3180
61.1123	625.0000	25.0000
61.1405	629.0000	25.0799
61.1688	623.0000	24.9600
61.1971	643.0000	25.3574
61.2253	629.0000	25.0799
61.2536	579.0000	24.0624
61.2819	662.0000	25.7294
61.3101	649.0000	25.4755
61.3384	681.0000	26.0960
61.3667	654.0000	25.5734
61.3949	633.0000	25.1595
61.4232	599.0000	24.4745
61.4514	661.0000	25.7099
61.4797	631.0000	25.1197
61.5080	616.0000	24.8193
61.5362	639.0000	25.2784
61.5645	636.0000	25.2190
61.5928	642.0000	25.3377
61.6210	643.0000	25.3574
61.6493	612.0000	24.7386
61.6776	669.0000	25.8650
61.7058	701.0000	26.4764
61.7341	606.0000	24.6171
61.7624	649.0000	25.4755
61.7906	616.0000	24.8193
61.8189	616.0000	24.8193
61.8472	659.0000	25.6710
61.8754	684.0000	26.1534
61.9037	629.0000	25.0799
61.9320	641.0000	25.3180
61.9602	603.0000	24.5561
61.9885	649.0000	25.4755
62.0168	630.0000	25.0998
62.0450	635.0000	25.1992
62.0733	617.0000	24.8395
62.1016	660.0000	25.6905
62.1298	617.0000	24.8395
62.1581	645.0000	25.3969
62.1864	599.0000	24.4745
62.2146	625.0000	25.0000
62.2429	650.0000	25.4951
62.2711	645.0000	25.3969
62.2994	649.0000	25.4755
62.3277	621.0000	24.9199
62.3559	642.0000	25.3377
62.3842	639.0000	25.2784
62.4125	682.0000	26.1151
62.4407	623.0000	24.9600
62.4690	651.0000	25.5147
62.4973	633.0000	25.1595
62.5255	673.0000	25.9422
62.5538	661.0000	25.7099
62.5821	616.0000	24.8193
62.6103	632.0000	25.1396
62.6386	658.0000	25.6515
62.6669	660.0000	25.6905
62.6951	624.0000	24.9800
62.7234	672.0000	25.9230
62.7517	629.0000	25.0799
62.7799	609.0000	24.6779
62.8082	682.0000	26.1151
62.8365	679.0000	26.0576
62.8647	631.0000	25.1197
62.8930	606.0000	24.6171
62.9213	691.0000	26.2869
62.9495	678.0000	26.0384
62.9778	651.0000	25.5147
63.0061	662.0000	25.7294
63.0343	644.0000	25.3772
63.0626	649.0000	25.4755
63.0908	628.0000	25.0599
63.1191	689.0000	26.2488
63.1474	609.0000	24.6779
63.1756	631.0000	25.1197
63.2039	674.0000	25.9615
63.2322	668.0000	25.8457
63.2604	611.0000	24.7184
63.2887	626.0000	25.0200
63.3170	674.0000	25.9615
63.3452	636.0000	25.2190
63.3735	648.0000	25.4558
63.4018	667.0000	25.8263
63.4300	650.0000	25.4951
63.4583	651.0000	25.5147
63.4866	650.0000	25.4951
63.5148	629.0000	25.0799
63.5431	680.0000	26.0768
63.5714	671.0000	25.9037
63.5996	607.0000	24.6374
63.6279	611.0000	24.7184
63.6562	687.0000	26.2107
63.6844	606.0000	24.6171
63.7127	646.0000	25.4165
63.7410	681.0000	26.0960
63.7692	702.0000	26.4953
63.7975	731.0000	27.0370
63.8258	670.0000	25.8844
63.8540	656.0000	25.6125
63.8823	691.0000	26.2869
63.9106	671.0000	25.9037
63.9388	640.0000	25.2982
63.9671	761.0000	27.5862
63.9953	711.0000	26.6646
64.0236	763.0000	27.6225
64.0519	746.0000	27.3130
64.0801	701.0000	26.4764
64.1084	703.0000	26.5141
64.1367	733.0000	27.0740
64.1649	680.0000	26.0768
64.1932	752.0000	27.4226
64.2215	742.0000	27.2397
64.2497	721.0000	26.8514
64.2780	735.0000	27.1109
64.3063	721.0000	26.8514
64.3345	711.0000	26.6646
64.3628	730.0000	27.0185
64.3911	735.0000	27.1109
64.4193	803.0000	28.3373
64.4476	777.0000	27.8747
64.4759	721.0000	26.8514
64.5041	738.0000	27.1662
64.5324	778.0000	27.8927
64.5607	826.0000	28.7402
64.5889	757.0000	27.5136
64.6172	800.0000	28.2843
64.6455	829.0000	28.7924
64.6737	861.0000	29.3428
64.7020	830.0000	28.8097
64.7303	834.0000	28.8791
64.7585	793.0000	28.1603
64.7868	838.0000	28.9482
64.8150	831.0000	28.8271
64.8433	827.0000	28.7576
64.8716	841.0000	29.0000
64.8998	839.0000	28.9655
64.9281	884.0000	29.7321
64.9564	841.0000	29.0000
64.9846	859.0000	29.3087
65.0129	852.0000	29.1890
65.0412	853.0000	29.2062
65.0694	816.0000	28.5657
65.0977	829.0000	28.7924
65.1260	836.0000	28.9137
65.1542	799.0000	28.2666
65.1825	822.0000	28.6705
65.2108	865.0000	29.4109
65.2390	818.0000	28.6007
65.2673	821.0000	28.6531
65.2956	845.0000	29.0689
65.3238	765.0000	27.6586
65.3521	822.0000	28.6705
65.3804	793.0000	28.1603
65.4086	789.0000	28.0891
65.4369	820.0000	28.6356
65.4652	783.0000	27.9821
65.4934	753.0000	27.4408
65.5217	742.0000	27.2397
65.5500	754.0000	27.4591
65.5782	782.0000	27.9643
65.6065	769.0000	27.7308
65.6348	751.0000	27.4044
65.6630	781.0000	27.9464
65.6913	754.0000	27.4591
65.7195	757.0000	27.5136
65.7478	755.0000	27.4773
65.7761	804.0000	28.3549
65.8043	716.0000	26.7582
65.8326	723.0000	26.8887
65.8609	740.0000	27.2029
65.8891	742.0000	27.2397
65.9174	722.0000	26.8701
65.9457	760.0000	27.5681
65.9739	716.0000	26.7582
66.0022	720.0000	26.8328
66.0305	741.0000	27.2213
66.0587	680.0000	26.0768
66.0870	744.0000	27.2764
66.1153	730.0000	27.0185
66.1435	778.0000	27.8927
66.1718	735.0000	27.1109
66.2001	721.0000	26.8514
66.2283	751.0000	27.4044
66.2566	699.0000	26.4386
66.2849	688.0000	26.2298
66.3131	728.0000	26.9815
66.3414	719.0000	26.8142
66.3697	701.0000	26.4764
66.3979	691.0000	26.2869
66.4262	671.0000	25.9037
66.4545	718.0000	26.7955
66.4827	689.0000	26.2488
66.5110	700.0000	26.4575
66.5392	685.0000	26.1725
66.5675	726.0000	26.9444
66.5958	735.0000	27.1109
66.6240	712.0000	26.6833
66.6523	712.0000	26.6833
66.6806	698.0000	26.4197
66.7088	732.0000	27.0555
66.7371	725.0000	26.9258
66.7654	724.0000	26.9072
66.7936	701.0000	26.4764
66.8219	739.0000	27.1846
66.8502	704.0000	26.5330
66.8784	652.0000	25.5343
66.9067	757.0000	27.5136
66.9350	725.0000	26.9258
66.9632	723.0000	26.8887
66.9915	756.0000	27.4955
67.0198	691.0000	26.2869
67.0480	718.0000	26.7955
67.0763	684.0000	26.1534
67.1046	671.0000	25.9037
67.1328	757.0000	27.5136
67.1611	718.0000	26.7955
67.1894	713.0000	26.7021
67.2176	714.0000	26.7208
67.2459	720.0000	26.8328
67.2742	727.0000	26.9629
67.3024	699.0000	26.4386
67.3307	697.0000	26.4008
67.3589	718.0000	26.7955
67.3872	667.0000	25.8263
67.4155	728.0000	26.9815
67.4437	763.0000	27.6225
67.4720	725.0000	26.9258
67.5003	706.0000	26.5707
67.5285	760.0000	27.5681
67.5568	694.0000	26.3439
67.5851	737.0000	27.1477
67.6133	720.0000	26.8328
67.6416	714.0000	26.7208
67.6699	766.0000	27.6767
67.6981	696.0000	26.3818
67.7264	740.0000	27.2029
67.7547	774.0000	27.8209
67.7829	791.0000	28.1247
67.8112	708.0000	26.6083
67.8395	748.0000	27.3496
67.8677	719.0000	26.8142
67.8960	748.0000	27.3496
67.9243	734.0000	27.0924
67.9525	756.0000	27.4955
67.9808	789.0000	28.0891
68.0091	761.0000	27.5862
68.0373	763.0000	27.6225
68.0656	784.0000	28.0000
68.0939	790.0000	28.1069
68.1221	792.0000	28.1425
68.1504	769.0000	27.7308
68.1787	787.0000	28.0535
68.2069	865.0000	29.4109
68.2352	820.0000	28.6356
68.2634	794.0000	28.1780
68.2917	841.0000	29.0000
68.3200	891.0000	29.8496
68.3482	817.0000	28.5832
68.3765	857.0000	29.2746
68.4048	870.0000	29.4958
68.4330	847.0000	29.1033
68.4613	873.0000	29.5466
68.4896	914.0000	30.2324
68.5178	901.0000	30.0167
68.5461	928.0000	30.4631
68.5744	1003.0000	31.6702
68.6026	967.0000	31.0966
68.6309	943.0000	30.7083
68.6592	980.0000	31.3050
68.6874	947.0000	30.7734
68.7157	1019.0000	31.9218
68.7440	1064.0000	32.6190
68.7722	1043.0000	32.2955
68.8005	1039.0000	32.2335
68.8288	1162.0000	34.0881
68.8570	1174.0000	34.2637
68.8853	1182.0000	34.3802
68.9136	1196.0000	34.5832
68.9418	1243.0000	35.2562
68.9701	1258.0000	35.4683
68.9984	1365.0000	36.9459
69.0266	1312.0000	36.2215
69.0549	1398.0000	37.3898
69.0831	1327.0000	36.4280
69.1114	1434.0000	37.8682
69.1397	1487.0000	38.5616
69.1679	1485.0000	38.5357
69.1962	1628.0000	40.3485
69.2245	1608.0000	40.0999
69.2527	1665.0000	40.8044
69.2810	1787.0000	42.2729
69.3093	1837.0000	42.8602
69.3375	1708.0000	41.3280
69.3658	1839.0000	42.8836
69.3941	1804.0000	42.4735
69.4223	1921.0000	43.8292
69.4506	1966.0000	44.3396
69.4789	1924.0000	43.8634
69.5071	2024.0000	44.9889
69.5354	2010.0000	44.8330
69.5637	2068.0000	45.4753
69.5919	2064.0000	45.4313
69.6202	1988.0000	44.5870
69.6485	2096.0000	45.7821
69.6767	2049.0000	45.2659
69.7050	1985.0000	44.5533
69.7333	2039.0000	45.1553
69.7615	2110.0000	45.9347
69.7898	2055.0000	45.3321
69.8181	2016.0000	44.8999
69.8463	1996.0000	44.6766
69.8746	1974.0000	44.4297
69.9028	2001.0000	44.7325
69.9311	1986.0000	44.5646
69.9594	1899.0000	43.5775
69.9876	1914.0000	43.7493
70.0159	1841.0000	42.9069
70.0442	1888.0000	43.4511
70.0724	1758.0000	41.9285
70.1007	1740.0000	41.7133
70.1290	1757.0000	41.9166
70.1572	1706.0000	41.3038
70.1855	1680.0000	40.9878
70.2138	1658.0000	40.7185
70.2420	1555.0000	39.4335
70.2703	1597.0000	39.9625
70.2986	1533.0000	39.1535
70.3268	1420.0000	37.6829
70.3551	1413.0000	37.5899
70.3834	1397.0000	37.3765
70.4116	1366.0000	36.9594
70.4399	1333.0000	36.5103
70.4682	1292.0000	35.9444
70.4964	1214.0000	34.8425
70.5247	1246.0000	35.2987
70.5530	1232.0000	35.0999
70.5812	1183.0000	34.3948
70.6095	1144.0000	33.8231
70.6378	1139.0000	33.7491
70.6660	1141.0000	33.7787
70.6943	1143.0000	33.8083
70.7226	1113.0000	33.3617
70.7508	1086.0000	32.9545
70.7791	1051.0000	32.4191
70.8073	1023.0000	31.9844
70.8356	1018.0000	31.9061
70.8639	1033.0000	32.1403
70.8921	1037.0000	32.2025
70.9204	1035.0000	32.1714
70.9487	999.0000	31.6070
70.9769	986.0000	31.4006
71.0052	950.0000	30.8221
71.0335	986.0000	31.4006
71.0617	931.0000	30.5123
71.0900	936.0000	30.5941
71.1183	929.0000	30.4795
71.1465	872.0000	29.5296
71.1748	903.0000	30.0500
71.2031	895.0000	29.9166
71.2313	923.0000	30.3809
71.2596	893.0000	29.8831
71.2879	917.0000	30.2820
71.3161	878.0000	29.6311
71.3444	893.0000	29.8831
71.3727	876.0000	29.5973
71.4009	888.0000	29.7993
71.4292	805.0000	28.3725
71.4575	823.0000	28.6880
71.4857	894.0000	29.8998
71.5140	831.0000	28.8271
71.5423	896.0000	29.9333
71.5705	896.0000	29.9333
71.5988	829.0000	28.7924
71.6270	840.0000	28.9828
71.6553	795.0000	28.1957
71.6836	822.0000	28.6705
71.7118	804.0000	28.3549
71.7401	750.0000	27.3861
71.7684	778.0000	27.8927
71.7966	828.0000	28.7750
71.8249	822.0000	28.6705
71.8532	838.0000	28.9482
71.8814	771.0000	27.7669
71.9097	796.0000	28.2135
71.9380	771.0000	27.7669
71.9662	772.0000	27.7849
71.9945	770.0000	27.7489
72.0228	759.0000	27.5500
72.0510	807.0000	28.4077
72.0793	760.0000	27.5681
72.1076	788.0000	28.0713
72.1358	827.0000	28.7576
72.1641	813.0000	28.5132
72.1924	816.0000	28.5657
72.2206	800.0000	28.2843
72.2489	789.0000	28.0891
72.2772	798.0000	28.2489
72.3054	786.0000	28.0357
72.3337	781.0000	27.9464
72.3620	816.0000	28.5657
72.3902	850.0000	29.1548
72.4185	838.0000	28.9482
72.4468	869.0000	29.4788
72.4750	899.0000	29.9833
72.5033	883.0000	29.7153
72.5315	860.0000	29.3258
72.5598	937.0000	30.6105
72.5881	956.0000	30.9192
72.6163	1032.0000	32.1248
72.6446	1003.0000	31.6702
72.6729	1030.0000	32.0936
72.7011	1172.0000	34.2345
72.7294	1166.0000	34.1467
72.7577	1198.0000	34.6121
72.7859	1355.0000	36.8103
72.8142	1367.0000	36.9730
72.8425	1520.0000	38.9872
72.8707	1687.0000	41.0731
72.8990	1825.0000	42.7200
72.9273	2073.0000	45.5302
72.9555	2388.0000	48.8672
72.9838	2492.0000	49.9199
73.0121	2703.0000	51.9904
73.0403	2864.0000	53.5164
73.0686	3096.0000	55.6417
73.0969	3239.0000	56.9122
73.1251	3188.0000	56.4624
73.1534	3293.0000	57.3847
73.1817	3207.0000	56.6304
73.2099	3229.0000	56.8243
73.2382	3043.0000	55.1634
73.2665	2935.0000	54.1756
73.2947	2830.0000	53.1977
73.3230	2628.0000	51.2640
73.3512	2576.0000	50.7543
73.3795	2334.0000	48.3115
73.4078	2126.0000	46.1086
73.4360	1868.0000	43.2204
73.4643	1733.0000	41.6293
73.4926	1623.0000	40.2865
73.5208	1513.0000	38.8973
73.5491	1378.0000	37.1214
73.5774	1235.0000	35.1426
73.6056	1141.0000	33.7787
73.6339	1072.0000	32.7414
73.6622	1055.0000	32.4808
73.6904	1047.0000	32.3574
73.7187	990.0000	31.4643
73.7470	962.0000	31.0161
73.7752	900.0000	30.0000
73.8035	869.0000	29.4788
73.8318	812.0000	28.4956
73.8600	834.0000	28.8791
73.8883	775.0000	27.8388
73.9166	802.0000	28.3196
73.9448	749.0000	27.3679
73.9731	708.0000	26.6083
74.0014	732.0000	27.0555
74.0296	704.0000	26.5330
74.0579	741.0000	27.2213
74.0862	703.0000	26.5141
74.1144	728.0000	26.9815
74.1427	706.0000	26.5707
74.1709	758.0000	27.5318
74.1992	653.0000	25.5539
74.2275	655.0000	25.5930
74.2557	677.0000	26.0192
74.2840	669.0000	25.8650
74.3123	636.0000	25.2190
74.3405	675.0000	25.9808
74.3688	636.0000	25.2190
74.3971	672.0000	25.9230
74.4253	650.0000	25.4951
74.4536	638.0000	25.2587
74.4819	618.0000	24.8596
74.5101	660.0000	25.6905
74.5384	690.0000	26.2679
74.5667	638.0000	25.2587
74.5949	727.0000	26.9629
74.6232	632.0000	25.1396
74.6515	672.0000	25.9230
74.6797	662.0000	25.7294
74.7080	634.0000	25.1794
74.7363	652.0000	25.5343
74.7645	668.0000	25.8457
74.7928	616.0000	24.8193
74.8211	636.0000	25.2190
74.8493	653.0000	25.5539
74.8776	690.0000	26.2679
74.9059	643.0000	25.3574
74.9341	610.0000	24.6982
74.9624	661.0000	25.7099
74.9907	654.0000	25.5734
75.0189	603.0000	24.5561
75.0472	615.0000	24.7992
75.0754	648.0000	25.4558
75.1037	658.0000	25.6515
75.1320	653.0000	25.5539
75.1602	670.0000	25.8844
75.1885	633.0000	25.1595
75.2168	615.0000	24.7992
75.2450	623.0000	24.9600
75.2733	656.0000	25.6125
75.3016	633.0000	25.1595
75.3298	641.0000	25.3180
75.3581	626.0000	25.0200
75.3864	660.0000	25.6905
75.4146	655.0000	25.5930
75.4429	652.0000	25.5343
75.4712	610.0000	24.6982
75.4994	600.0000	24.4949
75.5277	608.0000	24.6577
75.5560	605.0000	24.5967
75.5842	679.0000	26.0576
75.6125	662.0000	25.7294
75.6408	597.0000	24.4336
75.6690	649.0000	25.4755
75.6973	671.0000	25.9037
75.7256	623.0000	24.9600
75.7538	641.0000	25.3180
75.7821	689.0000	26.2488
75.8104	646.0000	25.4165
75.8386	669.0000	25.8650
75.8669	633.0000	25.1595
75.8951	705.0000	26.5518
75.9234	672.0000	25.9230
75.9517	667.0000	25.8263
75.9799	694.0000	26.3439
76.0082	667.0000	25.8263
76.0365	668.0000	25.8457
76.0647	731.0000	27.0370
76.0930	728.0000	26.9815
76.1213	676.0000	26.0000
76.1495	701.0000	26.4764
76.1778	683.0000	26.1343
76.2061	678.0000	26.0384
76.2343	695.0000	26.3629
76.2626	689.0000	26.2488
76.2909	702.0000	26.4953
76.3191	719.0000	26.8142
76.3474	747.0000	27.3313
76.3757	774.0000	27.8209
76.4039	738.0000	27.1662
76.4322	725.0000	26.9258
76.4605	784.0000	28.0000
76.4887	700.0000	26.4575
76.5170	765.0000	27.6586
76.5453	774.0000	27.8209
76.5735	755.0000	27.4773
76.6018	724.0000	26.9072
76.6301	744.0000	27.2764
76.6583	751.0000	27.4044
76.6866	751.0000	27.4044
76.7149	779.0000	27.9106
76.7431	767.0000	27.6948
76.7714	690.0000	26.2679
76.7996	733.0000	27.0740
76.8279	713.0000	26.7021
76.8562	757.0000	27.5136
76.8844	725.0000	26.9258
76.9127	731.0000	27.0370
76.9410	684.0000	26.1534
76.9692	710.0000	26.6458
76.9975	744.0000	27.2764
77.0258	711.0000	26.6646
77.0540	633.0000	25.1595
77.0823	721.0000	26.8514
77.1106	716.0000	26.7582
77.1388	678.0000	26.0384
77.1671	702.0000	26.4953
77.1954	678.0000	26.0384
77.2236	652.0000	25.5343
77.2519	620.0000	24.8998
77.2802	661.0000	25.7099
77.3084	705.0000	26.5518
77.3367	637.0000	25.2389
77.3650	689.0000	26.2488
77.3932	664.0000	25.7682
77.4215	641.0000	25.3180
77.4498	651.0000	25.5147
77.4780	605.0000	24.5967
77.5063	604.0000	24.5764
77.5346	602.0000	24.5357
77.5628	627.0000	25.0400
77.5911	607.0000	24.6374
77.6193	583.0000	24.1454
77.6476	617.0000	24.8395
77.6759	616.0000	24.8193
77.7041	638.0000	25.2587
77.7324	595.0000	24.3926
77.7607	595.0000	24.3926
77.7889	569.0000	23.8537
77.8172	614.0000	24.7790
77.8455	618.0000	24.8596
77.8737	604.0000	24.5764
77.9020	612.0000	24.7386
77.9303	565.0000	23.7697
77.9585	595.0000	24.3926
77.9868	647.0000	25.4362
78.0151	628.0000	25.0599
78.0433	575.0000	23.9792
78.0716	570.0000	23.8747
78.0999	574.0000	23.9583
78.1281	583.0000	24.1454
78.1564	584.0000	24.1661
78.1847	572.0000	23.9165
78.2129	599.0000	24.4745
78.2412	556.0000	23.5797
78.2695	562.0000	23.7065
78.2977	562.0000	23.7065
78.3260	562.0000	23.7065
78.3543	522.0000	22.8473
78.3825	567.0000	23.8118
78.4108	559.0000	23.6432
78.4390	538.0000	23.1948
78.4673	576.0000	24.0000
78.4956	599.0000	24.4745
78.5238	548.0000	23.4094
78.5521	555.0000	23.5584
78.5804	591.0000	24.3105
78.6086	544.0000	23.3238
78.6369	600.0000	24.4949
78.6652	577.0000	24.0208
78.6934	542.0000	23.2809
78.7217	584.0000	24.1661
78.7500	582.0000	24.1247
78.7782	528.0000	22.9783
78.8065	546.0000	23.3666
78.8348	552.0000	23.4947
78.8630	535.0000	23.1301
78.8913	523.0000	22.8692
78.9196	535.0000	23.1301
78.9478	569.0000	23.8537
78.9761	563.0000	23.7276
79.0044	536.0000	23.1517
79.0326	581.0000	24.1039
79.0609	572.0000	23.9165
79.0892	533.0000	23.0868
79.1174	558.0000	23.6220
79.1457	510.0000	22.5832
79.1740	548.0000	23.4094
79.2022	590.0000	24.2899
79.2305	546.0000	23.3666
79.2588	575.0000	23.9792
79.2870	556.0000	23.5797
79.3153	565.0000	23.7697
79.3435	547.0000	23.3880
79.3718	545.0000	23.3452
79.4001	574.0000	23.9583
79.4283	544.0000	23.3238
79.4566	538.0000	23.1948
79.4849	568.0000	23.8328
79.5131	537.0000	23.1733
79.5414	560.0000	23.6643
79.5697	521.0000	22.8254
79.5979	558.0000	23.6220
79.6262	565.0000	23.7697
79.6545	566.0000	23.7908
79.6827	586.0000	24.2074
79.7110	569.0000	23.8537
79.7393	548.0000	23.4094
79.7675	571.0000	23.8956
79.7958	499.0000	22.3383
79.8241	526.0000	22.9347
79.8523	550.0000	23.4521
79.8806	536.0000	23.1517
79.9089	565.0000	23.7697
79.9371	520.0000	22.8035
79.9654	519.0000	22.7816
79.9937	560.0000	23.6643
80.0219	542.0000	23.2809
80.0502	538.0000	23.1948
80.0785	547.0000	23.3880
80.1067	540.0000	23.2379
80.1350	565.0000	23.7697
80.1632	565.0000	23.7697
80.1915	546.0000	23.3666
80.2198	539.0000	23.2164
80.2480	556.0000	23.5797
80.2763	536.0000	23.1517
80.3046	558.0000	23.6220
80.3328	599.0000	24.4745
80.3611	581.0000	24.1039
80.3894	595.0000	24.3926
80.4176	580.0000	24.0832
80.4459	601.0000	24.5153
80.4742	572.0000	23.9165
80.5024	583.0000	24.1454
80.5307	546.0000	23.3666
80.5590	559.0000	23.6432
80.5872	580.0000	24.0832
80.6155	584.0000	24.1661
80.6438	593.0000	24.3516
80.6720	610.0000	24.6982
80.7003	634.0000	25.1794
80.7286	583.0000	24.1454
80.7568	571.0000	23.8956
80.7851	589.0000	24.2693
80.8134	583.0000	24.1454
80.8416	567.0000	23.8118
80.8699	609.0000	24.6779
80.8982	562.0000	23.7065
80.9264	559.0000	23.6432
80.9547	619.0000	24.8797
80.9830	594.0000	24.3721
81.0112	607.0000	24.6374
81.0395	584.0000	24.1661
81.0677	575.0000	23.9792
81.0960	603.0000	24.5561
81.1243	593.0000	24.3516
81.1525	614.0000	24.7790
81.1808	595.0000	24.3926
81.2091	625.0000	25.0000
81.2373	606.0000	24.6171
81.2656	568.0000	23.8328
81.2939	579.0000	24.0624
81.3221	606.0000	24.6171
81.3504	600.0000	24.4949
81.3787	592.0000	24.3311
81.4069	606.0000	24.6171
81.4352	631.0000	25.1197
81.4635	633.0000	25.1595
81.4917	655.0000	25.5930
81.5200	624.0000	24.9800
81.5483	608.0000	24.6577
81.5765	640.0000	25.2982
81.6048	689.0000	26.2488
81.6331	642.0000	25.3377
81.6613	674.0000	25.9615
81.6896	641.0000	25.3180
81.7179	640.0000	25.2982
81.7461	747.0000	27.3313
81.7744	680.0000	26.0768
81.8027	664.0000	25.7682
81.8309	693.0000	26.3249
81.8592	679.0000	26.0576
81.8874	620.0000	24.8998
81.9157	744.0000	27.2764
81.9440	786.0000	28.0357
81.9722	692.0000	26.3059
82.0005	629.0000	25.0799
82.0288	735.0000	27.1109
82.0570	713.0000	26.7021
82.0853	717.0000	26.7769
82.1136	803.0000	28.3373
82.1418	779.0000	27.9106
82.1701	757.0000	27.5136
82.1984	728.0000	26.9815
82.2266	790.0000	28.1069
82.2549	828.0000	28.7750
82.2832	805.0000	28.3725
82.3114	791.0000	28.1247
82.3397	844.0000	29.0517
82.3680	789.0000	28.0891
82.3962	803.0000	28.3373
82.4245	836.0000	28.9137
82.4528	862.0000	29.3598
82.4810	816.0000	28.5657
82.5093	836.0000	28.9137
82.5376	807.0000	28.4077
82.5658	889.0000	29.8161
82.5941	810.0000	28.4605
82.6224	864.0000	29.3939
82.6506	868.0000	29.4618
82.6789	869.0000	29.4788
82.7071	822.0000	28.6705
82.7354	842.0000	29.0172
82.7637	855.0000	29.2404
82.7919	831.0000	28.8271
82.8202	842.0000	29.0172
82.8485	845.0000	29.0689
82.8767	828.0000	28.7750
82.9050	885.0000	29.7489
82.9333	853.0000	29.2062
82.9615	830.0000	28.8097
82.9898	795.0000	28.1957
83.0181	788.0000	28.0713
83.0463	789.0000	28.0891
83.0746	813.0000	28.5132
83.1029	801.0000	28.3019
83.1311	758.0000	27.5318
83.1594	783.0000	27.9821
83.1877	758.0000	27.5318
83.2159	754.0000	27.4591
83.2442	771.0000	27.7669
83.2725	733.0000	27.0740
83.3007	740.0000	27.2029
83.3290	710.0000	26.6458
83.3573	695.0000	26.3629
83.3855	724.0000	26.9072
83.4138	685.0000	26.1725
83.4421	741.0000	27.2213
83.4703	750.0000	27.3861
83.4986	690.0000	26.2679
83.5269	707.0000	26.5895
83.5551	680.0000	26.0768
83.5834	735.0000	27.1109
83.6116	685.0000	26.1725
83.6399	655.0000	25.5930
83.6682	722.0000	26.8701
83.6964	616.0000	24.8193
83.7247	648.0000	25.4558
83.7530	655.0000	25.5930
83.7812	670.0000	25.8844
83.8095	624.0000	24.9800
83.8378	682.0000	26.1151
83.8660	620.0000	24.8998
83.8943	614.0000	24.7790
83.9226	654.0000	25.5734
83.9508	626.0000	25.0200
83.9791	638.0000	25.2587
84.0074	622.0000	24.9399
84.0356	630.0000	25.0998
84.0639	629.0000	25.0799
84.0922	640.0000	25.2982
84.1204	568.0000	23.8328
84.1487	645.0000	25.3969
84.1770	613.0000	24.7588
84.2052	599.0000	24.4745
84.2335	617.0000	24.8395
84.2618	669.0000	25.8650
84.2900	600.0000	24.4949
84.3183	589.0000	24.2693
84.3466	589.0000	24.2693
84.3748	571.0000	23.8956
84.4031	579.0000	24.0624
84.4313	614.0000	24.7790
84.4596	591.0000	24.3105
84.4879	583.0000	24.1454
84.5161	586.0000	24.2074
84.5444	631.0000	25.1197
84.5727	586.0000	24.2074
84.6009	569.0000	23.8537
84.6292	581.0000	24.1039
84.6575	612.0000	24.7386
84.6857	550.0000	23.4521
84.7140	587.0000	24.2281
84.7423	586.0000	24.2074
84.7705	566.0000	23.7908
84.7988	569.0000	23.8537
84.8271	593.0000	24.3516
84.8553	557.0000	23.6008
84.8836	557.0000	23.6008
84.9119	613.0000	24.7588
84.9401	609.0000	24.6779
84.9684	575.0000	23.9792
84.9967	630.0000	25.0998
85.0249	623.0000	24.9600
85.0532	569.0000	23.8537
85.0815	578.0000	24.0416
85.1097	571.0000	23.8956
85.1380	572.0000	23.9165
85.1663	604.0000	24.5764
85.1945	579.0000	24.0624
85.2228	581.0000	24.1039
85.2511	575.0000	23.9792
85.2793	564.0000	23.7487
85.3076	583.0000	24.1454
85.3358	563.0000	23.7276
85.3641	571.0000	23.8956
85.3924	577.0000	24.0208
85.4206	558.0000	23.6220
85.4489	576.0000	24.0000
85.4772	594.0000	24.3721
85.5054	581.0000	24.1039
85.5337	582.0000	24.1247
85.5620	531.0000	23.0434
85.5902	553.0000	23.5160
85.6185	603.0000	24.5561
85.6468	602.0000	24.5357
85.6750	636.0000	25.2190
85.7033	600.0000	24.4949
85.7316	605.0000	24.5967
85.7598	574.0000	23.9583
85.7881	550.0000	23.4521
85.8164	622.0000	24.9399
85.8446	584.0000	24.1661
85.8729	598.0000	24.4540
85.9012	614.0000	24.7790
85.9294	627.0000	25.0400
85.9577	657.0000	25.6320
85.9860	594.0000	24.3721
86.0142	588.0000	24.2487
86.0425	611.0000	24.7184
86.0708	576.0000	24.0000
86.0990	621.0000	24.9199
86.1273	632.0000	25.1396
86.1555	613.0000	24.7588
86.1838	616.0000	24.8193
86.2121	621.0000	24.9199
86.2403	647.0000	25.4362
86.2686	637.0000	25.2389
86.2969	648.0000	25.4558
86.3251	677.0000	26.0192
86.3534	689.0000	26.2488
86.3817	692.0000	26.3059
86.4099	698.0000	26.4197
86.4382	734.0000	27.0924
86.4665	768.0000	27.7128
86.4947	752.0000	27.4226
86.5230	862.0000	29.3598
86.5513	862.0000	29.3598
86.5795	892.0000	29.8664
86.6078	964.0000	31.0483
86.6361	932.0000	30.5287
86.6643	1091.0000	33.0303
86.6926	1105.0000	33.2415
86.7209	1222.0000	34.9571
86.7491	1225.0000	35.0000
86.7774	1236.0000	35.1568
86.8057	1398.0000	37.3898
86.8339	1471.0000	38.3536
86.8622	1487.0000	38.5616
86.8905	1516.0000	38.9358
86.9187	1460.0000	38.2099
86.9470	1503.0000	38.7685
86.9752	1473.0000	38.3797
87.0035	1420.0000	37.6829
87.0318	1373.0000	37.0540
87.0600	1417.0000	37.6431
87.0883	1380.0000	37.1484
87.1166	1341.0000	36.6197
87.1448	1285.0000	35.8469
87.1731	1245.0000	35.2846
87.2014	1135.0000	33.6898
87.2296	1106.0000	33.2566
87.2579	1075.0000	32.7872
87.2862	1051.0000	32.4191
87.3144	970.0000	31.1448
87.3427	965.0000	31.0644
87.3710	875.0000	29.5804
87.3992	891.0000	29.8496
87.4275	818.0000	28.6007
87.4558	819.0000	28.6182
87.4840	794.0000	28.1780
87.5123	740.0000	27.2029
87.5406	721.0000	26.8514
87.5688	680.0000	26.0768
87.5971	704.0000	26.5330
87.6254	661.0000	25.7099
87.6536	681.0000	26.0960
87.6819	661.0000	25.7099
87.7102	674.0000	25.9615
87.7384	655.0000	25.5930
87.7667	662.0000	25.7294
87.7950	605.0000	24.5967
87.8232	624.0000	24.9800
87.8515	673.0000	25.9422
87.8797	654.0000	25.5734
87.9080	655.0000	25.5930
87.9363	651.0000	25.5147
87.9645	660.0000	25.6905
87.9928	583.0000	24.1454
88.0211	608.0000	24.6577
88.0493	608.0000	24.6577
88.0776	619.0000	24.8797
88.1059	571.0000	23.8956
88.1341	649.0000	25.4755
88.1624	576.0000	24.0000
88.1907	571.0000	23.8956
88.2189	644.0000	25.3772
88.2472	574.0000	23.9583
88.2755	593.0000	24.3516
88.3037	561.0000	23.6854
88.3320	595.0000	24.3926
88.3603	633.0000	25.1595
88.3885	605.0000	24.5967
88.4168	595.0000	24.3926
88.4451	587.0000	24.2281
88.4733	593.0000	24.3516
88.5016	594.0000	24.3721
88.5299	554.0000	23.5372
88.5581	573.0000	23.9374
88.5864	581.0000	24.1039
88.6147	649.0000	25.4755
88.6429	545.0000	23.3452
88.6712	567.0000	23.8118
88.6994	565.0000	23.7697
88.7277	580.0000	24.0832
88.7560	591.0000	24.3105
88.7842	544.0000	23.3238
88.8125	551.0000	23.4734
88.8408	557.0000	23.6008
88.8690	535.0000	23.1301
88.8973	595.0000	24.3926
88.9256	571.0000	23.8956
88.9538	559.0000	23.6432
88.9821	593.0000	24.3516
89.0104	571.0000	23.8956
89.0386	532.0000	23.0651
89.0669	565.0000	23.7697
89.0952	534.0000	23.1084
89.1234	550.0000	23.4521
89.1517	568.0000	23.8328
89.1800	533.0000	23.0868
89.2082	561.0000	23.6854
89.2365	578.0000	24.0416
89.2648	601.0000	24.5153
89.2930	542.0000	23.2809
89.3213	549.0000	23.4307
89.3496	552.0000	23.4947
89.3778	548.0000	23.4094
89.4061	544.0000	23.3238
89.4344	507.0000	22.5167
89.4626	566.0000	23.7908
89.4909	567.0000	23.8118
89.5192	548.0000	23.4094
89.5474	560.0000	23.6643
89.5757	577.0000	24.0208
89.6039	578.0000	24.0416
89.6322	559.0000	23.6432
89.6605	624.0000	24.9800
89.6887	554.0000	23.5372
89.7170	543.0000	23.3024
89.7453	541.0000	23.2594
89.7735	532.0000	23.0651
89.8018	561.0000	23.6854
89.8301	566.0000	23.7908
89.8583	605.0000	24.5967
89.8866	534.0000	23.1084
89.9149	533.0000	23.0868
89.9431	576.0000	24.0000
89.9714	521.0000	22.8254
89.9997	552.0000	23.4947
90.0279	569.0000	23.8537
90.0562	542.0000	23.2809
90.0845	564.0000	23.7487
90.1127	555.0000	23.5584
90.1410	540.0000	23.2379
90.1693	550.0000	23.4521
90.1975	538.0000	23.1948
90.2258	566.0000	23.7908
90.2541	552.0000	23.4947
90.2823	599.0000	24.4745
90.3106	520.0000	22.8035
90.3389	555.0000	23.5584
90.3671	557.0000	23.6008
90.3954	592.0000	24.3311
90.4236	544.0000	23.3238
90.4519	575.0000	23.9792
90.4802	534.0000	23.1084
90.5084	535.0000	23.1301
90.5367	532.0000	23.0651
90.5650	588.0000	24.2487
90.5932	585.0000	24.1868
90.6215	557.0000	23.6008
90.6498	584.0000	24.1661
90.6780	564.0000	23.7487
90.7063	579.0000	24.0624
90.7346	561.0000	23.6854
90.7628	560.0000	23.6643
90.7911	618.0000	24.8596
90.8194	551.0000	23.4734
90.8476	586.0000	24.2074
90.8759	531.0000	23.0434
90.9042	565.0000	23.7697
90.9324	577.0000	24.0208
90.9607	559.0000	23.6432
90.9890	570.0000	23.8747
91.0172	608.0000	24.6577
91.0455	543.0000	23.3024
91.0738	582.0000	24.1247
91.1020	569.0000	23.8537
91.1303	597.0000	24.4336
91.1586	592.0000	24.3311
91.1868	559.0000	23.6432
91.2151	572.0000	23.9165
91.2433	534.0000	23.1084
91.2716	548.0000	23.4094
91.2999	565.0000	23.7697
91.3281	589.0000	24.2693
91.3564	579.0000	24.0624
91.3847	608.0000	24.6577
91.4129	617.0000	24.8395
91.4412	586.0000	24.2074
91.4695	618.0000	24.8596
91.4977	590.0000	24.2899
91.5260	580.0000	24.0832
91.5543	599.0000	24.4745
91.5825	617.0000	24.8395
91.6108	633.0000	25.1595
91.6391	602.0000	24.5357
91.6673	593.0000	24.3516
91.6956	582.0000	24.1247
91.7239	566.0000	23.7908
91.7521	612.0000	24.7386
91.7804	602.0000	24.5357
91.8087	595.0000	24.3926
91.8369	622.0000	24.9399
91.8652	572.0000	23.9165
91.8935	613.0000	24.7588
91.9217	559.0000	23.6432
91.9500	570.0000	23.8747
91.9783	560.0000	23.6643
92.0065	616.0000	24.8193
92.0348	596.0000	24.4131
92.0631	569.0000	23.8537
92.0913	608.0000	24.6577
92.1196	603.0000	24.5561
92.1478	572.0000	23.9165
92.1761	610.0000	24.6982
92.2044	627.0000	25.0400
92.2326	606.0000	24.6171
92.2609	636.0000	25.2190
92.2892	607.0000	24.6374
92.3174	577.0000	24.0208
92.3457	607.0000	24.6374
92.3740	597.0000	24.4336
92.4022	622.0000	24.9399
92.4305	595.0000	24.3926
92.4588	617.0000	24.8395
92.4870	605.0000	24.5967
92.5153	630.0000	25.0998
92.5436	571.0000	23.8956
92.5718	608.0000	24.6577
92.6001	608.0000	24.6577
92.6284	571.0000	23.8956
92.6566	575.0000	23.9792
92.6849	589.0000	24.2693
92.7132	639.0000	25.2784
92.7414	592.0000	24.3311
92.7697	594.0000	24.3721
92.7980	572.0000	23.9165
92.8262	556.0000	23.5797
92.8545	679.0000	26.0576
92.8828	624.0000	24.9800
92.9110	664.0000	25.7682
92.9393	644.0000	25.3772
92.9675	629.0000	25.0799
92.9958	654.0000	25.5734
93.0241	624.0000	24.9800
93.0523	627.0000	25.0400
93.0806	587.0000	24.2281
93.1089	615.0000	24.7992
93.1371	631.0000	25.1197
93.1654	643.0000	25.3574
93.1937	615.0000	24.7992
93.2219	623.0000	24.9600
93.2502	622.0000	24.9399
93.2785	641.0000	25.3180
93.3067	606.0000	24.6171
93.3350	663.0000	25.7488
93.3633	641.0000	25.3180
93.3915	623.0000	24.9600
93.4198	609.0000	24.6779
93.4481	663.0000	25.7488
93.4763	702.0000	26.4953
93.5046	633.0000	25.1595
93.5329	629.0000	25.0799
93.5611	584.0000	24.1661
93.5894	699.0000	26.4386
93.6177	714.0000	26.7208
93.6459	671.0000	25.9037
93.6742	697.0000	26.4008
93.7025	698.0000	26.4197
93.7307	707.0000	26.5895
93.7590	686.0000	26.1916
93.7872	690.0000	26.2679
93.8155	652.0000	25.5343
93.8438	703.0000	26.5141
93.8720	681.0000	26.0960
93.9003	729.0000	27.0000
93.9286	687.0000	26.2107
93.9568	740.0000	27.2029
93.9851	744.0000	27.2764
94.0134	707.0000	26.5895
94.0416	762.0000	27.6043
94.0699	787.0000	28.0535
94.0982	773.0000	27.8029
94.1264	764.0000	27.6405
94.1547	764.0000	27.6405
94.1830	780.0000	27.9285
94.2112	771.0000	27.7669
94.2395	797.0000	28.2312
94.2678	824.0000	28.7054
94.2960	740.0000	27.2029
94.3243	800.0000	28.2843
94.3526	773.0000	27.8029
94.3808	806.0000	28.3901
94.4091	880.0000	29.6648
94.4374	764.0000	27.6405
94.4656	797.0000	28.2312
94.4939	880.0000	29.6648
94.5222	833.0000	28.8617
94.5504	822.0000	28.6705
94.5787	847.0000	29.1033
94.6070	897.0000	29.9500
94.6352	846.0000	29.0861
94.6635	830.0000	28.8097
94.6917	854.0000	29.2233
94.7200	832.0000	28.8444
94.7483	873.0000	29.5466
94.7765	860.0000	29.3258
94.8048	899.0000	29.9833
94.8331	847.0000	29.1033
94.8613	838.0000	28.9482
94.8896	901.0000	30.0167
94.9179	846.0000	29.0861
94.9461	909.0000	30.1496
94.9744	853.0000	29.2062
95.0027	877.0000	29.6142
95.0309	894.0000	29.8998
95.0592	920.0000	30.3315
95.0875	908.0000	30.1330
95.1157	862.0000	29.3598
95.1440	862.0000	29.3598
95.1723	803.0000	28.3373
95.2005	867.0000	29.4449
95.2288	832.0000	28.8444
95.2571	871.0000	29.5127
95.2853	881.0000	29.6816
95.3136	877.0000	29.6142
95.3419	863.0000	29.3769
95.3701	837.0000	28.9310
95.3984	886.0000	29.7658
95.4267	892.0000	29.8664
95.4549	870.0000	29.4958
95.4832	830.0000	28.8097
95.5114	823.0000	28.6880
95.5397	891.0000	29.8496
95.5680	835.0000	28.8964
95.5962	803.0000	28.3373
95.6245	818.0000	28.6007
95.6528	799.0000	28.2666
95.6810	794.0000	28.1780
95.7093	828.0000	28.7750
95.7376	850.0000	29.1548
95.7658	779.0000	27.9106
95.7941	814.0000	28.5307
95.8224	784.0000	28.0000
95.8506	774.0000	27.8209
95.8789	827.0000	28.7576
95.9072	760.0000	27.5681
95.9354	752.0000	27.4226
95.9637	787.0000	28.0535
95.9920	761.0000	27.5862
96.0202	756.0000	27.4955
96.0485	729.0000	27.0000
96.0768	735.0000	27.1109
96.1050	703.0000	26.5141
96.1333	749.0000	27.3679
96.1616	702.0000	26.4953
96.1898	733.0000	27.0740
96.2181	730.0000	27.0185
96.2464	712.0000	26.6833
96.2746	706.0000	26.5707
96.3029	720.0000	26.8328
96.3312	685.0000	26.1725
96.3594	672.0000	25.9230
96.3877	715.0000	26.7395
96.4159	679.0000	26.0576
96.4442	656.0000	25.6125
96.4725	711.0000	26.6646
96.5007	700.0000	26.4575
96.5290	691.0000	26.2869
96.5573	652.0000	25.5343
96.5855	731.0000	27.0370
96.6138	676.0000	26.0000
96.6421	699.0000	26.4386
96.6703	674.0000	25.9615
96.6986	644.0000	25.3772
96.7269	627.0000	25.0400
96.7551	626.0000	25.0200
96.7834	625.0000	25.0000
96.8117	659.0000	25.6710
96.8399	659.0000	25.6710
96.8682	631.0000	25.1197
96.8965	632.0000	25.1396
96.9247	602.0000	24.5357
96.9530	641.0000	25.3180
96.9813	621.0000	24.9199
97.0095	615.0000	24.7992
97.0378	672.0000	25.9230
97.0661	611.0000	24.7184
97.0943	567.0000	23.8118
97.1226	660.0000	25.6905
97.1509	622.0000	24.9399
97.1791	629.0000	25.0799
97.2074	578.0000	24.0416
97.2356	630.0000	25.0998
97.2639	642.0000	25.3377
97.2922	621.0000	24.9199
97.3204	629.0000	25.0799
97.3487	590.0000	24.2899
97.3770	590.0000	24.2899
97.4052	578.0000	24.0416
97.4335	621.0000	24.9199
97.4618	609.0000	24.6779
97.4900	589.0000	24.2693
97.5183	595.0000	24.3926
97.5466	625.0000	25.0000
97.5748	589.0000	24.2693
97.6031	544.0000	23.3238
97.6314	549.0000	23.4307
97.6596	632.0000	25.1396
97.6879	562.0000	23.7065
97.7162	596.0000	24.4131
97.7444	520.0000	22.8035
97.7727	606.0000	24.6171
97.8010	587.0000	24.2281
97.8292	564.0000	23.7487
97.8575	601.0000	24.5153
97.8858	617.0000	24.8395
97.9140	656.0000	25.6125
97.9423	581.0000	24.1039
97.9706	576.0000	24.0000
97.9988	562.0000	23.7065
98.0271	543.0000	23.3024
98.0553	578.0000	24.0416
98.0836	614.0000	24.7790
98.1119	597.0000	24.4336
98.1401	580.0000	24.0832
98.1684	597.0000	24.4336
98.1967	573.0000	23.9374
98.2249	569.0000	23.8537
98.2532	586.0000	24.2074
98.2815	560.0000	23.6643
98.3097	573.0000	23.9374
98.3380	571.0000	23.8956
98.3663	576.0000	24.0000
98.3945	568.0000	23.8328
98.4228	557.0000	23.6008
98.4511	560.0000	23.6643
98.4793	560.0000	23.6643
98.5076	556.0000	23.5797
98.5359	575.0000	23.9792
98.5641	549.0000	23.4307
98.5924	567.0000	23.8118
98.6207	606.0000	24.6171
98.6489	553.0000	23.5160
98.6772	541.0000	23.2594
98.7055	580.0000	24.0832
98.7337	597.0000	24.4336
98.7620	518.0000	22.7596
98.7903	556.0000	23.5797
98.8185	609.0000	24.6779
98.8468	588.0000	24.2487
98.8751	565.0000	23.7697
98.9033	618.0000	24.8596
98.9316	627.0000	25.0400
98.9598	558.0000	23.6220
98.9881	601.0000	24.5153
99.0164	604.0000	24.5764
99.0446	578.0000	24.0416
99.0729	551.0000	23.4734
99.1012	583.0000	24.1454
99.1294	590.0000	24.2899
99.1577	566.0000	23.7908
99.1860	592.0000	24.3311
99.2142	578.0000	24.0416
99.2425	576.0000	24.0000
99.2708	594.0000	24.3721
99.2990	574.0000	23.9583
99.3273	592.0000	24.3311
99.3556	609.0000	24.6779
99.3838	661.0000	25.7099
99.4121	629.0000	25.0799
99.4404	593.0000	24.3516
99.4686	589.0000	24.2693
99.4969	603.0000	24.5561
99.5252	590.0000	24.2899
99.5534	600.0000	24.4949
99.5817	648.0000	25.4558
99.6100	612.0000	24.7386
99.6382	625.0000	25.0000
99.6665	644.0000	25.3772
99.6948	669.0000	25.8650
99.7230	666.0000	25.8070
99.7513	646.0000	25.4165
99.7795	682.0000	26.1151
99.8078	724.0000	26.9072
99.8361	738.0000	27.1662
99.8643	728.0000	26.9815
99.8926	747.0000	27.3313
99.9209	747.0000	27.3313
99.9491	825.0000	28.7228
99.9774	818.0000	28.6007
100.0057	901.0000	30.0167
100.0339	887.0000	29.7825
100.0622	908.0000	30.1330
100.0905	911.0000	30.1828
100.1187	990.0000	31.4643
100.1470	1081.0000	32.8786
100.1753	1119.0000	33.4515
100.2035	1105.0000	33.2415
100.2318	1205.0000	34.7131
100.2601	1217.0000	34.8855
100.2883	1344.0000	36.6606
100.3166	1430.0000	37.8153
100.3449	1538.0000	39.2173
100.3731	1619.0000	40.2368
100.4014	1635.0000	40.4351
100.4297	1776.0000	42.1426
100.4579	1820.0000	42.6615
100.4862	1908.0000	43.6807
100.5145	1878.0000	43.3359
100.5427	1993.0000	44.6430
100.5710	1989.0000	44.5982
100.5993	1958.0000	44.2493
100.6275	1951.0000	44.1701
100.6558	1922.0000	43.8406
100.6840	1843.0000	42.9302
100.7123	1786.0000	42.2611
100.7406	1726.0000	41.5452
100.7688	1753.0000	41.8688
100.7971	1747.0000	41.7971
100.8254	1704.0000	41.2795
100.8536	1611.0000	40.1373
100.8819	1503.0000	38.7685
100.9102	1515.0000	38.9230
100.9384	1405.0000	37.4833
100.9667	1362.0000	36.9053
100.9950	1257.0000	35.4542
101.0232	1250.0000	35.3553
101.0515	1154.0000	33.9706
101.0798	1120.0000	33.4664
101.1080	1009.0000	31.7648
101.1363	1004.0000	31.6860
101.1646	936.0000	30.5941
101.1928	959.0000	30.9677
101.2211	867.0000	29.4449
101.2494	851.0000	29.1719
101.2776	823.0000	28.6880
101.3059	749.0000	27.3679
101.3342	719.0000	26.8142
101.3624	672.0000	25.9230
101.3907	721.0000	26.8514
101.4190	681.0000	26.0960
101.4472	680.0000	26.0768
101.4755	647.0000	25.4362
101.5037	670.0000	25.8844
101.5320	669.0000	25.8650
101.5603	636.0000	25.2190
101.5885	652.0000	25.5343
101.6168	586.0000	24.2074
101.6451	600.0000	24.4949
101.6733	599.0000	24.4745
101.7016	604.0000	24.5764
101.7299	570.0000	23.8747
101.7581	544.0000	23.3238
101.7864	600.0000	24.4949
101.8147	572.0000	23.9165
101.8429	580.0000	24.0832
101.8712	571.0000	23.8956
101.8995	576.0000	24.0000
101.9277	575.0000	23.9792
101.9560	551.0000	23.4734
101.9843	577.0000	24.0208
102.0125	540.0000	23.2379
102.0408	521.0000	22.8254
102.0691	510.0000	22.5832
102.0973	483.0000	21.9773
102.1256	551.0000	23.4734
102.1539	532.0000	23.0651
102.1821	562.0000	23.7065
102.2104	591.0000	24.3105
102.2387	550.0000	23.4521
102.2669	537.0000	23.1733
102.2952	551.0000	23.4734
102.3234	547.0000	23.3880
102.3517	536.0000	23.1517
102.3800	538.0000	23.1948
102.4082	584.0000	24.1661
102.4365	543.0000	23.3024
102.4648	521.0000	22.8254
102.4930	580.0000	24.0832
102.5213	518.0000	22.7596
102.5496	514.0000	22.6716
102.5778	537.0000	23.1733
102.6061	520.0000	22.8035
102.6344	526.0000	22.9347
102.6626	513.0000	22.6495
102.6909	527.0000	22.9565
102.7192	503.0000	22.4277
102.7474	536.0000	23.1517
102.7757	570.0000	23.8747
102.8040	489.0000	22.1133
102.8322	540.0000	23.2379
102.8605	510.0000	22.5832
102.8888	509.0000	22.5610
102.9170	514.0000	22.6716
102.9453	539.0000	23.2164
102.9736	522.0000	22.8473
103.0018	535.0000	23.1301
103.0301	545.0000	23.3452
103.0584	513.0000	22.6495
103.0866	564.0000	23.7487
103.1149	489.0000	22.1133
103.1432	515.0000	22.6936
103.1714	533.0000	23.0868
103.1997	543.0000	23.3024
103.2279	519.0000	22.7816
103.2562	544.0000	23.3238
103.2845	513.0000	22.6495
103.3127	531.0000	23.0434
103.3410	517.0000	22.7376
103.3693	540.0000	23.2379
103.3975	498.0000	22.3159
103.4258	543.0000	23.3024
103.4541	542.0000	23.2809
103.4823	559.0000	23.6432
103.5106	557.0000	23.6008
103.5389	490.0000	22.1359
103.5671	522.0000	22.8473
103.5954	503.0000	22.4277
103.6237	478.0000	21.8632
103.6519	488.0000	22.0907
103.6802	516.0000	22.7156
103.7085	533.0000	23.0868
103.7367	505.0000	22.4722
103.7650	537.0000	23.1733
103.7933	485.0000	22.0227
103.8215	499.0000	22.3383
103.8498	512.0000	22.6274
103.8781	516.0000	22.7156
103.9063	520.0000	22.8035
103.9346	527.0000	22.9565
103.9629	550.0000	23.4521
103.9911	546.0000	23.3666
104.0194	529.0000	23.0000
104.0476	529.0000	23.0000
104.0759	483.0000	21.9773
104.1042	477.0000	21.8403
104.1324	527.0000	22.9565
104.1607	488.0000	22.0907
104.1890	527.0000	22.9565
104.2172	481.0000	21.9317
104.2455	502.0000	22.4054
104.2738	505.0000	22.4722
104.3020	510.0000	22.5832
104.3303	476.0000	21.8174
104.3586	509.0000	22.5610
104.3868	522.0000	22.8473
104.4151	525.0000	22.9129
104.4434	524.0000	22.8910
104.4716	546.0000	23.3666
104.4999	513.0000	22.6495
104.5282	498.0000	22.3159
104.5564	524.0000	22.8910
104.5847	517.0000	22.7376
104.6130	493.0000	22.2036
104.6412	556.0000	23.5797
104.6695	544.0000	23.3238
104.6978	474.0000	21.7715
104.7260	495.0000	22.2486
104.7543	470.0000	21.6795
104.7826	529.0000	23.0000
104.8108	522.0000	22.8473
104.8391	513.0000	22.6495
104.8674	500.0000	22.3607
104.8956	529.0000	23.0000
104.9239	482.0000	21.9545
104.9521	509.0000	22.5610
104.9804	462.0000	21.4942
105.0087	529.0000	23.0000
105.0369	485.0000	22.0227
105.0652	497.0000	22.2935
105.0935	499.0000	22.3383
105.1217	539.0000	23.2164
105.1500	514.0000	22.6716
105.1783	488.0000	22.0907
105.2065	524.0000	22.8910
105.2348	528.0000	22.9783
105.2631	514.0000	22.6716
105.2913	536.0000	23.1517
105.3196	536.0000	23.1517
105.3479	472.0000	21.7256
105.3761	499.0000	22.3383
105.4044	517.0000	22.7376
105.4327	526.0000	22.9347
105.4609	518.0000	22.7596
105.4892	524.0000	22.8910
105.5175	511.0000	22.6053
105.5457	477.0000	21.8403
105.5740	505.0000	22.4722
105.6023	564.0000	23.7487
105.6305	514.0000	22.6716
105.6588	545.0000	23.3452
105.6871	517.0000	22.7376
105.7153	547.0000	23.3880
105.7436	531.0000	23.0434
105.7718	518.0000	22.7596
105.8001	550.0000	23.4521
105.8284	491.0000	22.1585
105.8566	535.0000	23.1301
105.8849	555.0000	23.5584
105.9132	499.0000	22.3383
105.9414	512.0000	22.6274
105.9697	570.0000	23.8747
105.9980	500.0000	22.3607
106.0262	488.0000	22.0907
106.0545	540.0000	23.2379
106.0828	540.0000	23.2379
106.1110	507.0000	22.5167
106.1393	525.0000	22.9129
106.1676	491.0000	22.1585
106.1958	499.0000	22.3383
106.2241	506.0000	22.4944
106.2524	548.0000	23.4094
106.2806	506.0000	22.4944
106.3089	533.0000	23.0868
106.3372	529.0000	23.0000
106.3654	516.0000	22.7156
106.3937	533.0000	23.0868
106.4220	532.0000	23.0651
106.4502	525.0000	22.9129
106.4785	545.0000	23.3452
106.5068	525.0000	22.9129
106.5350	524.0000	22.8910
106.5633	529.0000	23.0000
106.5915	577.0000	24.0208
106.6198	544.0000	23.3238
106.6481	572.0000	23.9165
106.6763	534.0000	23.1084
106.7046	517.0000	22.7376
106.7329	546.0000	23.3666
106.7611	523.0000	22.8692
106.7894	522.0000	22.8473
106.8177	550.0000	23.4521
106.8459	536.0000	23.1517
106.8742	549.0000	23.4307
106.9025	520.0000	22.8035
106.9307	537.0000	23.1733
106.9590	587.0000	24.2281
106.9873	542.0000	23.2809
107.0155	585.0000	24.1868
107.0438	587.0000	24.2281
107.0721	596.0000	24.4131
107.1003	547.0000	23.3880
107.1286	590.0000	24.2899
107.1569	563.0000	23.7276
107.1851	555.0000	23.5584
107.2134	549.0000	23.4307
107.2417	553.0000	23.5160
107.2699	570.0000	23.8747
107.2982	555.0000	23.5584
107.3265	598.0000	24.4540
107.3547	592.0000	24.3311
107.3830	598.0000	24.4540
107.4113	587.0000	24.2281
107.4395	600.0000	24.4949
107.4678	586.0000	24.2074
107.4960	585.0000	24.1868
107.5243	569.0000	23.8537
107.5526	599.0000	24.4745
107.5808	601.0000	24.5153
107.6091	592.0000	24.3311
107.6374	552.0000	23.4947
107.6656	619.0000	24.8797
107.6939	578.0000	24.0416
107.7222	565.0000	23.7697
107.7504	602.0000	24.5357
107.7787	610.0000	24.6982
107.8070	605.0000	24.5967
107.8352	595.0000	24.3926
107.8635	593.0000	24.3516
107.8918	638.0000	25.2587
107.9200	590.0000	24.2899
107.9483	579.0000	24.0624
107.9766	633.0000	25.1595
108.0048	629.0000	25.0799
108.0331	641.0000	25.3180
108.0614	579.0000	24.0624
108.0896	581.0000	24.1039
108.1179	651.0000	25.5147
108.1462	603.0000	24.5561
108.1744	617.0000	24.8395
108.2027	562.0000	23.7065
108.2310	597.0000	24.4336
108.2592	634.0000	25.1794
108.2875	633.0000	25.1595
108.3157	620.0000	24.8998
108.3440	626.0000	25.0200
108.3723	603.0000	24.5561
108.4005	595.0000	24.3926
108.4288	664.0000	25.7682
108.4571	606.0000	24.6171
108.4853	627.0000	25.0400
108.5136	629.0000	25.0799
108.5419	601.0000	24.5153
108.5701	619.0000	24.8797
108.5984	660.0000	25.6905
108.6267	619.0000	24.8797
108.6549	608.0000	24.6577
108.6832	652.0000	25.5343
108.7115	669.0000	25.8650
108.7397	609.0000	24.6779
108.7680	651.0000	25.5147
108.7963	617.0000	24.8395
108.8245	636.0000	25.2190
108.8528	654.0000	25.5734
108.8811	588.0000	24.2487
108.9093	557.0000	23.6008
108.9376	612.0000	24.7386
108.9659	656.0000	25.6125
108.9941	653.0000	25.5539
109.0224	602.0000	24.5357
109.0507	631.0000	25.1197
109.0789	641.0000	25.3180
109.1072	659.0000	25.6710
109.1355	652.0000	25.5343
109.1637	630.0000	25.0998
109.1920	636.0000	25.2190
109.2202	600.0000	24.4949
109.2485	645.0000	25.3969
109.2768	631.0000	25.1197
109.3050	639.0000	25.2784
109.3333	602.0000	24.5357
109.3616	645.0000	25.3969
109.3898	611.0000	24.7184
109.4181	603.0000	24.5561
109.4464	640.0000	25.2982
109.4746	641.0000	25.3180
109.5029	659.0000	25.6710
109.5312	609.0000	24.6779
109.5594	667.0000	25.8263
109.5877	604.0000	24.5764
109.6160	667.0000	25.8263
109.6442	703.0000	26.5141
109.6725	647.0000	25.4362
109.7008	634.0000	25.1794
109.7290	641.0000	25.3180
109.7573	614.0000	24.7790
109.7856	613.0000	24.7588
109.8138	670.0000	25.8844
109.8421	641.0000	25.3180
109.8704	649.0000	25.4755
109.8986	665.0000	25.7876
109.9269	651.0000	25.5147
109.9552	648.0000	25.4558
109.9834	664.0000	25.7682
110.0117	640.0000	25.2982
