1.544427
20.0141	53.7778	2.4444
20.0424	50.8889	2.3779
20.0707	50.3333	2.3649
20.0989	53.8889	2.4470
20.1272	47.3333	2.2933
20.1555	50.1111	2.3596
20.1837	47.7778	2.3040
20.2120	47.7778	2.3040
20.2403	51.5556	2.3934
20.2685	49.3333	2.3413
20.2968	50.3333	2.3649
20.3251	49.0000	2.3333
20.3533	48.2222	2.3147
20.3816	52.3333	2.4114
20.4099	54.7778	2.4671
20.4381	50.7778	2.3753
20.4664	51.6667	2.3960
20.4946	50.4444	2.3675
20.5229	49.4444	2.3439
20.5512	47.2222	2.2906
20.5794	47.6667	2.3014
20.6077	48.3333	2.3174
20.6360	48.1111	2.3121
20.6642	49.1111	2.3360
20.6925	49.7778	2.3518
20.7208	50.2222	2.3623
20.7490	45.4737	2.1879
20.7773	48.3158	2.2552
20.8056	46.2105	2.2055
20.8338	45.5789	2.1904
20.8621	47.8947	2.2453
20.8904	51.1579	2.3206
20.9186	46.2105	2.2055
20.9469	47.7895	2.2429
20.9752	48.3158	2.2552
21.0034	43.8947	2.1495
21.0317	46.0000	2.2005
21.0600	49.1579	2.2748
21.0882	49.4737	2.2821
21.1165	42.5263	2.1158
21.1448	47.6842	2.2404
21.1730	48.7368	2.2650
21.2013	48.3158	2.2552
21.2296	45.0526	2.1777
21.2578	44.0000	2.1521
21.2861	43.2000	2.0785
21.3143	47.4000	2.1772
21.3426	48.9000	2.2113
21.3709	46.1000	2.1471
21.3991	47.0000	2.1679
21.4274	45.1000	2.1237
21.4557	46.1000	2.1471
21.4839	46.8000	2.1633
21.5122	42.7000	2.0664
21.5405	46.6000	2.1587
21.5687	50.9000	2.2561
21.5970	43.1000	2.0761
21.6253	46.5000	2.1564
21.6535	43.1000	2.0761
21.6818	46.1000	2.1471
21.7101	45.9000	2.1424
21.7383	42.8000	2.0688
21.7666	46.1000	2.1471
21.7949	47.3000	2.1749
21.8231	42.8000	2.0688
21.8514	46.1000	2.1471
21.8797	45.7000	2.1378
21.9079	45.1000	2.1237
21.9362	46.5000	2.1564
21.9645	47.1000	2.1703
21.9927	42.7000	2.0664
22.0210	46.2000	2.1494
22.0493	46.3000	2.1517
22.0775	41.9000	2.0469
22.1058	43.8000	2.0928
22.1340	45.2000	2.1260
22.1623	41.9000	2.0469
22.1906	44.8000	2.1166
22.2188	41.9000	2.0469
22.2471	42.9000	2.0712
22.2754	45.5000	2.1331
22.3036	43.4000	2.0833
22.3319	45.4000	2.1307
22.3602	44.0000	2.0976
22.3884	46.5000	2.1564
22.4167	43.0000	2.0736
22.4450	43.9000	2.0952
22.4732	44.4000	2.1071
22.5015	42.0000	2.0494
22.5298	41.2000	2.0298
22.5580	40.4000	2.0100
22.5863	42.3000	2.0567
22.6146	38.7000	1.9672
22.6428	45.8000	2.1401
22.6711	44.2000	2.1024
22.6994	43.2000	2.0785
22.7276	40.5000	2.0125
22.7559	40.9000	2.0224
22.7842	45.0000	2.1213
22.8124	41.3000	2.0322
22.8407	46.3000	2.1517
22.8690	41.4000	2.0347
22.8972	46.4000	2.1541
22.9255	41.0000	2.0248
22.9538	40.6000	2.0149
22.9820	42.4000	2.0591
23.0103	41.5000	2.0372
23.0385	44.8000	2.1166
23.0668	42.7000	2.0664
23.0951	39.0000	1.9748
23.1233	42.2000	2.0543
23.1516	40.4000	2.0100
23.1799	41.8000	2.0445
23.2081	39.0000	1.9748
23.2364	40.0000	2.0000
23.2647	39.5000	1.9875
23.2929	46.0000	2.1448
23.3212	36.5000	1.9105
23.3495	41.6000	2.0396
23.3777	43.0000	2.0736
23.4060	43.2000	2.0785
23.4343	43.4000	2.0833
23.4625	45.4000	2.1307
23.4908	40.1000	2.0025
23.5191	39.4000	1.9849
23.5473	36.9000	1.9209
23.5756	42.5000	2.0616
23.6039	41.4000	2.0347
23.6321	42.5000	2.0616
23.6604	40.3000	2.0075
23.6887	39.6000	1.9900
23.7169	41.0000	2.0248
23.7452	42.6000	2.0640
23.7735	45.2000	2.1260
23.8017	40.6000	2.0149
23.8300	42.5000	2.0616
23.8582	42.3000	2.0567
23.8865	40.1000	2.0025
23.9148	44.4000	2.1071
23.9430	36.1000	1.9000
23.9713	42.5000	2.0616
23.9996	42.2000	2.0543
24.0278	39.5000	1.9875
24.0561	39.6000	1.9900
24.0844	35.9000	1.8947
24.1126	38.8000	1.9698
24.1409	40.8000	2.0199
24.1692	35.6000	1.8868
24.1974	41.4000	2.0347
24.2257	42.0000	2.0494
24.2540	39.8000	1.9950
24.2822	36.7000	1.9157
24.3105	37.5000	1.9365
24.3388	37.3000	1.9313
24.3670	37.0000	1.9235
24.3953	36.6000	1.9131
24.4236	38.0000	1.9494
24.4518	42.6000	2.0640
24.4801	37.6000	1.9391
24.5084	37.0000	1.9235
24.5366	40.7000	2.0174
24.5649	37.3000	1.9313
24.5932	38.1000	1.9519
24.6214	37.8000	1.9442
24.6497	35.2000	1.8762
24.6780	40.4000	2.0100
24.7062	35.4000	1.8815
24.7345	35.9000	1.8947
24.7627	36.5000	1.9105
24.7910	36.8000	1.9183
24.8193	34.6000	1.8601
24.8475	37.7000	1.9416
24.8758	34.6000	1.8601
24.9041	39.7000	1.9925
24.9323	39.2000	1.9799
24.9606	34.6000	1.8601
24.9889	37.6000	1.9391
25.0171	39.0000	1.9748
25.0454	39.1000	1.9774
25.0737	35.9000	1.8947
25.1019	36.6000	1.9131
25.1302	33.0476	1.7741
25.1585	36.0952	1.8541
25.1867	34.9524	1.8245
25.2150	38.8571	1.9237
25.2433	34.6667	1.8170
25.2715	37.2381	1.8832
25.2998	36.5714	1.8663
25.3281	40.0000	1.9518
25.3563	36.7619	1.8711
25.3846	36.9524	1.8760
25.4129	40.4762	1.9634
25.4411	34.4762	1.8120
25.4694	34.2857	1.8070
25.4977	35.0476	1.8270
25.5259	39.0476	1.9284
25.5542	36.0000	1.8516
25.5824	34.5714	1.8145
25.6107	34.6667	1.8170
25.6390	36.0952	1.8541
25.6672	35.2381	1.8319
25.6955	35.3333	1.8344
25.7238	35.8182	1.8045
25.7520	37.0000	1.8340
25.7803	37.1818	1.8385
25.8086	33.5455	1.7463
25.8368	38.9091	1.8807
25.8651	37.6364	1.8497
25.8934	35.5455	1.7976
25.9216	34.9091	1.7814
25.9499	37.5455	1.8475
25.9782	35.7273	1.8022
26.0064	34.0909	1.7604
26.0347	30.5455	1.6664
26.0630	37.1818	1.8385
26.0912	34.0000	1.7581
26.1195	36.9091	1.8318
26.1478	33.7273	1.7510
26.1760	33.5455	1.7463
26.2043	35.7273	1.8022
26.2326	36.4545	1.8205
26.2608	35.0000	1.7838
26.2891	36.0909	1.8114
26.3174	39.1818	1.8873
26.3456	37.0909	1.8363
26.3739	37.4545	1.8453
26.4021	36.2727	1.8159
26.4304	36.7273	1.8273
26.4587	35.6364	1.7999
26.4869	30.8182	1.6738
26.5152	34.6364	1.7745
26.5435	34.2727	1.7651
26.5717	34.7273	1.7768
26.6000	31.0909	1.6812
26.6283	32.0000	1.7056
26.6565	32.0000	1.7056
26.6848	31.1818	1.6837
26.7131	34.2727	1.7651
26.7413	33.8182	1.7534
26.7696	35.6364	1.7999
26.7979	35.0909	1.7861
26.8261	36.4545	1.8205
26.8544	34.2727	1.7651
26.8827	35.7273	1.8022
26.9109	33.1818	1.7368
26.9392	30.0909	1.6539
26.9675	32.0000	1.7056
26.9957	35.3636	1.7930
27.0240	31.8182	1.7008
27.0523	33.8182	1.7534
27.0805	37.2727	1.8408
27.1088	32.0000	1.7056
27.1371	31.7273	1.6983
27.1653	33.3636	1.7416
27.1936	30.0000	1.6514
27.2219	33.6364	1.7487
27.2501	38.6364	1.8741
27.2784	34.7273	1.7768
27.3066	35.8182	1.8045
27.3349	33.0000	1.7321
27.3632	33.1818	1.7368
27.3914	33.8182	1.7534
27.4197	31.5455	1.6934
27.4480	32.7273	1.7249
27.4762	32.4545	1.7177
27.5045	31.7273	1.6983
27.5328	32.8182	1.7273
27.5610	34.8182	1.7791
27.5893	28.8182	1.6186
27.6176	34.6364	1.7745
27.6458	35.4545	1.7953
27.6741	30.7273	1.6713
27.7024	30.5455	1.6664
27.7306	29.3636	1.6338
27.7589	31.8182	1.7008
27.7872	31.1818	1.6837
27.8154	35.4545	1.7953
27.8437	31.2727	1.6861
27.8720	34.7273	1.7768
27.9002	33.9091	1.7557
27.9285	32.0000	1.7056
27.9568	31.2727	1.6861
27.9850	31.7273	1.6983
28.0133	30.7273	1.6713
28.0416	36.8182	1.8295
28.0698	32.7273	1.7249
28.0981	33.3636	1.7416
28.1263	32.5455	1.7201
28.1546	32.4545	1.7177
28.1829	31.8182	1.7008
28.2111	31.0000	1.6787
28.2394	32.3636	1.7153
28.2677	31.7273	1.6983
28.2959	33.5455	1.7463
28.3242	30.0000	1.6514
28.3525	32.7273	1.7249
28.3807	31.7273	1.6983
28.4090	28.7273	1.6160
28.4373	32.4545	1.7177
28.4655	30.1818	1.6564
28.4938	32.2727	1.7129
28.5221	34.7273	1.7768
28.5503	31.9091	1.7032
28.5786	30.1818	1.6564
28.6069	30.2727	1.6589
28.6351	30.8182	1.6738
28.6634	31.7273	1.6983
28.6917	31.3636	1.6886
28.7199	30.4545	1.6639
28.7482	31.0000	1.6787
28.7765	30.0909	1.6539
28.8047	30.7273	1.6713
28.8330	33.8182	1.7534
28.8613	31.5455	1.6934
28.8895	31.1818	1.6837
28.9178	30.0909	1.6539
28.9461	34.0000	1.7581
28.9743	28.7273	1.6160
29.0026	32.5455	1.7201
29.0308	31.2727	1.6861
29.0591	31.5455	1.6934
29.0874	33.9091	1.7557
29.1156	32.1818	1.7104
29.1439	32.9091	1.7297
29.1722	29.4545	1.6364
29.2004	30.4545	1.6639
29.2287	29.0000	1.6237
29.2570	30.0000	1.6514
29.2852	31.1818	1.6837
29.3135	32.6364	1.7225
29.3418	30.9091	1.6763
29.3700	30.0909	1.6539
29.3983	31.5455	1.6934
29.4266	31.1818	1.6837
29.4548	27.8182	1.5903
29.4831	32.9565	1.6929
29.5114	29.6522	1.6058
29.5396	29.1304	1.5916
29.5679	28.6087	1.5772
29.5962	31.4783	1.6545
29.6244	30.2609	1.6222
29.6527	26.8696	1.5286
29.6810	31.5652	1.6567
29.7092	31.5652	1.6567
29.7375	29.5652	1.6034
29.7658	27.4783	1.5458
29.7940	27.1304	1.5360
29.8223	28.1739	1.5652
29.8505	31.0435	1.6430
29.8788	28.9565	1.5868
29.9071	30.8696	1.6384
29.9353	27.4783	1.5458
29.9636	27.9130	1.5580
29.9919	33.0435	1.6951
30.0201	29.3913	1.5987
30.0484	31.3913	1.6522
30.0767	27.5652	1.5482
30.1049	29.9130	1.6128
30.1332	27.2500	1.5069
30.1615	25.6667	1.4625
30.1897	31.5833	1.6223
30.2180	29.8333	1.5767
30.2463	29.1667	1.5590
30.2745	27.1667	1.5046
30.3028	33.3333	1.6667
30.3311	27.3333	1.5092
30.3593	28.6667	1.5456
30.3876	28.0833	1.5298
30.4159	28.1667	1.5321
30.4441	28.5833	1.5434
30.4724	30.2500	1.5877
30.5007	28.0000	1.5275
30.5289	29.0833	1.5568
30.5572	24.6667	1.4337
30.5855	27.7500	1.5207
30.6137	28.8333	1.5501
30.6420	31.1667	1.6116
30.6702	29.5833	1.5701
30.6985	26.9167	1.4977
30.7268	28.2500	1.5343
30.7550	25.6667	1.4625
30.7833	26.9167	1.4977
30.8116	31.1667	1.6116
30.8398	29.6667	1.5723
30.8681	27.2500	1.5069
30.8964	29.5000	1.5679
30.9246	26.6667	1.4907
30.9529	29.0000	1.5546
30.9812	30.0833	1.5833
31.0094	27.8333	1.5230
31.0377	28.6667	1.5456
31.0660	29.8333	1.5767
31.0942	27.3333	1.5092
31.1225	28.5000	1.5411
31.1508	32.9167	1.6562
31.1790	26.5833	1.4884
31.2073	27.0833	1.5023
31.2356	31.0833	1.6094
31.2638	28.1667	1.5321
31.2921	28.8333	1.5501
31.3204	29.4167	1.5657
31.3486	25.4167	1.4554
31.3769	28.5833	1.5434
31.4052	29.3333	1.5635
31.4334	27.4167	1.5115
31.4617	29.5833	1.5701
31.4900	28.7500	1.5478
31.5182	26.0833	1.4743
31.5465	25.6667	1.4625
31.5747	28.7500	1.5478
31.6030	26.0833	1.4743
31.6313	29.2500	1.5612
31.6595	27.2500	1.5069
31.6878	29.0000	1.5546
31.7161	27.1667	1.5046
31.7443	29.6667	1.5723
31.7726	27.0000	1.5000
31.8009	27.0833	1.5023
31.8291	27.0833	1.5023
31.8574	28.2500	1.5343
31.8857	28.0833	1.5298
31.9139	27.0000	1.5000
31.9422	26.7500	1.4930
31.9705	25.2500	1.4506
31.9987	26.4167	1.4837
32.0270	29.2500	1.5612
32.0553	27.0000	1.5000
32.0835	27.7500	1.5207
32.1118	27.0833	1.5023
32.1401	24.5000	1.4289
32.1683	25.9167	1.4696
32.1966	26.4167	1.4837
32.2249	27.3333	1.5092
32.2531	27.0833	1.5023
32.2814	28.5000	1.5411
32.3097	27.3333	1.5092
32.3379	26.8333	1.4954
32.3662	29.1667	1.5590
32.3944	28.0000	1.5275
32.4227	28.0833	1.5298
32.4510	26.5833	1.4884
32.4792	26.4167	1.4837
32.5075	27.5000	1.5138
32.5358	24.7500	1.4361
32.5640	25.8333	1.4672
32.5923	28.0833	1.5298
32.6206	26.3333	1.4814
32.6488	29.0000	1.5546
32.6771	25.0000	1.4434
32.7054	27.0000	1.5000
32.7336	27.7500	1.5207
32.7619	26.3333	1.4814
32.7902	24.0833	1.4167
32.8184	24.7500	1.4361
32.8467	24.9167	1.4410
32.8750	27.3333	1.5092
32.9032	28.0000	1.5275
32.9315	27.3333	1.5092
32.9598	28.5833	1.5434
32.9880	23.9167	1.4118
33.0163	24.1667	1.4191
33.0446	25.2500	1.4506
33.0728	25.5833	1.4601
33.1011	24.9167	1.4410
33.1294	29.1667	1.5590
33.1576	25.0833	1.4458
33.1859	23.9167	1.4118
33.2142	26.4167	1.4837
33.2424	27.2500	1.5069
33.2707	26.1667	1.4767
33.2989	27.5000	1.5138
33.3272	24.4167	1.4264
33.3555	27.5000	1.5138
33.3837	30.0833	1.5833
33.4120	24.7500	1.4361
33.4403	27.7500	1.5207
33.4685	23.5833	1.4019
33.4968	25.7500	1.4649
33.5251	25.8333	1.4672
33.5533	29.4167	1.5657
33.5816	26.4167	1.4837
33.6099	25.5000	1.4577
33.6381	25.5833	1.4601
33.6664	24.7500	1.4361
33.6947	26.4167	1.4837
33.7229	27.5833	1.5161
33.7512	25.2500	1.4506
33.7795	26.4167	1.4837
33.8077	26.9167	1.4977
33.8360	24.1667	1.4191
33.8643	24.7200	1.4063
33.8925	25.1200	1.4176
33.9208	27.8400	1.4924
33.9491	25.3600	1.4244
33.9773	26.6400	1.4599
34.0056	25.0400	1.4153
34.0339	27.2800	1.4773
34.0621	25.9200	1.4400
34.0904	27.5200	1.4838
34.1186	26.0000	1.4422
34.1469	25.3600	1.4244
34.1752	27.0400	1.4708
34.2034	25.0400	1.4153
34.2317	24.1600	1.3903
34.2600	24.5600	1.4017
34.2882	24.6400	1.4040
34.3165	25.7600	1.4355
34.3448	23.1200	1.3600
34.3730	23.5200	1.3717
34.4013	24.5600	1.4017
34.4296	25.0400	1.4153
34.4578	24.6400	1.4040
34.4861	23.1200	1.3600
34.5144	24.6400	1.4040
34.5426	25.3600	1.4244
34.5709	23.0769	1.3323
34.5992	26.3846	1.4246
34.6274	22.3846	1.3122
34.6557	25.5385	1.4016
34.6840	27.2308	1.4473
34.7122	25.5385	1.4016
34.7405	26.3846	1.4246
34.7688	26.2308	1.4205
34.7970	26.0769	1.4163
34.8253	26.1538	1.4184
34.8536	25.7692	1.4079
34.8818	27.7692	1.4615
34.9101	27.8462	1.4636
34.9383	26.1538	1.4184
34.9666	26.2308	1.4205
34.9949	26.5385	1.4288
35.0231	24.0769	1.3609
35.0514	27.2308	1.4473
35.0797	27.1538	1.4453
35.1079	26.6154	1.4309
35.1362	24.0000	1.3587
35.1645	25.6154	1.4037
35.1927	23.6154	1.3478
35.2210	25.8462	1.4100
35.2493	24.9231	1.3846
35.2775	26.6923	1.4329
35.3058	27.0000	1.4412
35.3341	25.6154	1.4037
35.3623	24.3846	1.3696
35.3906	21.8462	1.2963
35.4189	23.3077	1.3390
35.4471	21.9231	1.2986
35.4754	24.2308	1.3652
35.5037	26.3846	1.4246
35.5319	23.2308	1.3368
35.5602	24.2308	1.3652
35.5885	22.9231	1.3279
35.6167	26.0769	1.4163
35.6450	25.2308	1.3931
35.6733	25.6154	1.4037
35.7015	23.2308	1.3368
35.7298	24.6154	1.3760
35.7581	24.0000	1.3587
35.7863	25.5385	1.4016
35.8146	24.5385	1.3739
35.8428	26.9231	1.4391
35.8711	25.3846	1.3974
35.8994	25.8462	1.4100
35.9276	26.2308	1.4205
35.9559	24.6923	1.3782
35.9842	24.2308	1.3652
36.0124	24.8462	1.3825
36.0407	25.1538	1.3910
36.0690	26.6923	1.4329
36.0972	22.3846	1.3122
36.1255	24.1538	1.3631
36.1538	26.1538	1.4184
36.1820	25.8462	1.4100
36.2103	24.3846	1.3696
36.2386	26.0000	1.4142
36.2668	25.3077	1.3953
36.2951	25.1538	1.3910
36.3234	24.1538	1.3631
36.3516	21.3846	1.2826
36.3799	24.9231	1.3846
36.4082	24.9231	1.3846
36.4364	22.7692	1.3234
36.4647	25.3846	1.3974
36.4930	23.3846	1.3412
36.5212	24.3077	1.3674
36.5495	22.3846	1.3122
36.5778	21.8462	1.2963
36.6060	24.8462	1.3825
36.6343	27.0769	1.4432
36.6625	24.6154	1.3760
36.6908	24.7692	1.3803
36.7191	24.7692	1.3803
36.7473	25.0769	1.3889
36.7756	23.0769	1.3323
36.8039	25.8462	1.4100
36.8321	26.2308	1.4205
36.8604	26.8462	1.4370
36.8887	22.7692	1.3234
36.9169	24.3846	1.3696
36.9452	26.7692	1.4350
36.9735	27.9231	1.4656
37.0017	26.0000	1.4142
37.0300	24.5385	1.3739
37.0583	25.3077	1.3953
37.0865	26.0769	1.4163
37.1148	24.7692	1.3803
37.1431	24.7692	1.3803
37.1713	24.7692	1.3803
37.1996	29.4615	1.5054
37.2279	26.4615	1.4267
37.2561	25.2308	1.3931
37.2844	29.6154	1.5093
37.3127	26.0000	1.4142
37.3409	28.1538	1.4716
37.3692	27.4615	1.4534
37.3975	28.5385	1.4816
37.4257	31.9231	1.5670
37.4540	26.4615	1.4267
37.4823	30.2308	1.5249
37.5105	31.0000	1.5442
37.5388	30.0769	1.5211
37.5670	31.1538	1.5480
37.5953	30.6923	1.5365
37.6236	31.0000	1.5442
37.6518	29.6923	1.5113
37.6801	31.2308	1.5500
37.7084	31.1538	1.5480
37.7366	30.3846	1.5288
37.7649	30.6154	1.5346
37.7932	32.8462	1.5895
37.8214	31.0000	1.5442
37.8497	37.0000	1.6871
37.8780	32.7692	1.5877
37.9062	34.6923	1.6336
37.9345	34.6154	1.6318
37.9628	33.9231	1.6154
37.9910	37.6923	1.7028
38.0193	36.7692	1.6818
38.0476	37.0000	1.6871
38.0758	38.3846	1.7183
38.1041	40.1538	1.7575
38.1324	43.0769	1.8203
38.1606	43.0000	1.8187
38.1889	43.3846	1.8268
38.2172	53.8462	2.0352
38.2454	52.4444	1.9710
38.2737	56.0741	2.0380
38.3020	62.6667	2.1545
38.3302	65.4074	2.2011
38.3585	75.9259	2.3715
38.3867	87.2593	2.5424
38.4150	95.8519	2.6646
38.4433	107.4815	2.8216
38.4715	122.5185	3.0125
38.4998	144.9630	3.2769
38.5281	168.1481	3.5292
38.5563	188.1481	3.7332
38.5846	221.1852	4.0477
38.6129	252.0741	4.3211
38.6411	283.4074	4.5818
38.6694	292.9630	4.6584
38.6977	299.1852	4.7076
38.7259	312.6667	4.8125
38.7542	304.2222	4.7471
38.7825	287.1852	4.6123
38.8107	290.3704	4.6378
38.8390	264.1481	4.4234
38.8673	257.1111	4.3641
38.8955	240.8889	4.2242
38.9238	231.5556	4.1415
38.9521	216.6667	4.0062
38.9803	207.5556	3.9210
39.0086	199.6429	3.7763
39.0369	192.2143	3.7053
39.0651	190.1429	3.6853
39.0934	177.2857	3.5585
39.1217	170.9286	3.4942
39.1499	170.3571	3.4883
39.1782	166.1429	3.4449
39.2064	172.3571	3.5087
39.2347	164.2857	3.4256
39.2630	164.7143	3.4301
39.2912	163.5000	3.4174
39.3195	164.5714	3.4286
39.3478	166.8571	3.4523
39.3760	162.7143	3.4092
39.4043	166.8571	3.4523
39.4326	168.3571	3.4678
39.4608	166.2143	3.4456
39.4891	167.7857	3.4619
39.5174	174.0000	3.5254
39.5456	178.7857	3.5736
39.5739	175.1429	3.5370
39.6022	177.8571	3.5643
39.6304	180.9286	3.5949
39.6587	179.8571	3.5843
39.6870	181.8571	3.6041
39.7152	194.8571	3.7307
39.7435	194.0000	3.7225
39.7718	199.7857	3.7776
39.8000	198.7857	3.7682
39.8283	200.2143	3.7817
39.8566	213.8571	3.9084
39.8848	203.4286	3.8119
39.9131	205.6429	3.8326
39.9414	201.5714	3.7945
39.9696	202.4286	3.8025
39.9979	194.2143	3.7246
40.0262	201.1429	3.7904
40.0544	197.4286	3.7553
40.0827	186.9286	3.6540
40.1109	180.1429	3.5871
40.1392	181.7143	3.6027
40.1675	185.9286	3.6443
40.1957	193.7143	3.7198
40.2240	213.9286	3.9090
40.2523	237.8571	4.1219
40.2805	258.4286	4.2964
40.3088	273.5000	4.4199
40.3371	255.7857	4.2744
40.3653	213.7857	3.9077
40.3936	198.7143	3.7675
40.4219	163.0714	3.4129
40.4501	138.5714	3.1461
40.4784	104.3571	2.7302
40.5067	84.1429	2.4516
40.5349	71.0714	2.2531
40.5632	63.6429	2.1321
40.5915	57.6429	2.0291
40.6197	49.7143	1.8844
40.6480	48.2857	1.8571
40.6763	40.7857	1.7068
40.7045	38.2143	1.6521
40.7328	35.7857	1.5988
40.7611	41.1429	1.7143
40.7893	35.4286	1.5908
40.8176	32.2143	1.5169
40.8459	31.9286	1.5102
40.8741	33.2857	1.5419
40.9024	33.0000	1.5353
40.9306	29.8571	1.4604
40.9589	28.9286	1.4375
40.9872	31.6429	1.5034
41.0154	27.5000	1.4015
41.0437	29.8571	1.4604
41.0720	28.3571	1.4232
41.1002	28.1429	1.4178
41.1285	25.7143	1.3553
41.1568	28.1429	1.4178
41.1850	28.2143	1.4196
41.2133	29.9286	1.4621
41.2416	26.5000	1.3758
41.2698	27.8571	1.4106
41.2981	23.7857	1.3034
41.3264	26.3571	1.3721
41.3546	25.0714	1.3382
41.3829	27.4286	1.3997
41.4112	25.0714	1.3382
41.4394	25.5000	1.3496
41.4677	27.5000	1.4015
41.4960	25.2143	1.3420
41.5242	22.6429	1.2717
41.5525	25.0714	1.3382
41.5808	25.9286	1.3609
41.6090	23.7143	1.3015
41.6373	23.8571	1.3054
41.6656	24.8571	1.3325
41.6938	22.2143	1.2597
41.7221	24.0000	1.3093
41.7504	22.9286	1.2797
41.7786	25.3571	1.3458
41.8069	23.6429	1.2995
41.8351	21.4286	1.2372
41.8634	25.0714	1.3382
41.8917	22.0000	1.2536
41.9199	21.7857	1.2474
41.9482	21.4286	1.2372
41.9765	22.2857	1.2617
42.0047	24.5714	1.3248
42.0330	22.0000	1.2536
42.0613	23.1429	1.2857
42.0895	20.7143	1.2164
42.1178	24.5000	1.3229
42.1461	23.7143	1.3015
42.1743	21.3571	1.2351
42.2026	21.2143	1.2310
42.2309	23.1429	1.2857
42.2591	21.2143	1.2310
42.2874	22.4286	1.2657
42.3157	22.8571	1.2778
42.3439	23.1429	1.2857
42.3722	21.2143	1.2310
42.4005	22.6429	1.2717
42.4287	19.2143	1.1715
42.4570	21.9286	1.2515
42.4853	21.2857	1.2330
42.5135	20.2857	1.2037
42.5418	22.2143	1.2597
42.5701	21.7857	1.2474
42.5983	23.5862	1.2754
42.6266	22.8276	1.2547
42.6548	20.3448	1.1845
42.6831	21.1034	1.2064
42.7114	22.6207	1.2490
42.7396	21.1034	1.2064
42.7679	23.2414	1.2660
42.7962	22.2069	1.2375
42.8244	21.9310	1.2298
42.8527	18.4828	1.1290
42.8810	20.6897	1.1945
42.9092	20.8276	1.1985
42.9375	19.5172	1.1602
42.9658	21.1034	1.2064
42.9940	22.2759	1.2395
43.0223	21.6552	1.2221
43.0506	20.9655	1.2025
43.0788	19.5862	1.1622
43.1071	19.9310	1.1724
43.1354	19.7931	1.1683
43.1636	20.5517	1.1905
43.1919	21.5172	1.2182
43.2202	20.3448	1.1845
43.2484	20.4828	1.1885
43.2767	19.5172	1.1602
43.3050	20.0690	1.1765
43.3332	19.6552	1.1643
43.3615	21.7931	1.2260
43.3898	21.5862	1.2201
43.4180	21.2667	1.1907
43.4463	19.4667	1.1392
43.4745	22.1333	1.2147
43.5028	19.4667	1.1392
43.5311	20.2667	1.1624
43.5593	20.6667	1.1738
43.5876	23.0000	1.2383
43.6159	21.6000	1.2000
43.6441	20.6000	1.1719
43.6724	21.2667	1.1907
43.7007	18.8000	1.1195
43.7289	20.4667	1.1681
43.7572	19.5333	1.1411
43.7855	21.0000	1.1832
43.8137	19.6000	1.1431
43.8420	20.4000	1.1662
43.8703	19.6667	1.1450
43.8985	19.8667	1.1508
43.9268	19.8000	1.1489
43.9551	22.6000	1.2275
43.9833	18.2000	1.1015
44.0116	17.4667	1.0791
44.0399	19.2000	1.1314
44.0681	20.0667	1.1566
44.0964	18.2000	1.1015
44.1247	18.8000	1.1195
44.1529	19.4667	1.1392
44.1812	19.2667	1.1333
44.2095	18.8667	1.1215
44.2377	19.4000	1.1372
44.2660	20.8000	1.1776
44.2943	21.0000	1.1832
44.3225	19.3333	1.1353
44.3508	19.2667	1.1333
44.3790	18.6000	1.1136
44.4073	19.8000	1.1489
44.4356	20.8667	1.1795
44.4638	20.0000	1.1547
44.4921	18.2667	1.1035
44.5204	20.9333	1.1813
44.5486	19.0667	1.1274
44.5769	18.1333	1.0995
44.6052	20.6000	1.1719
44.6334	17.8667	1.0914
44.6617	19.7333	1.1470
44.6900	17.9333	1.0934
44.7182	19.8000	1.1489
44.7465	19.4667	1.1392
44.7748	18.2000	1.1015
44.8030	19.4667	1.1392
44.8313	20.2000	1.1605
44.8596	19.4667	1.1392
44.8878	17.2000	1.0708
44.9161	20.4000	1.1662
44.9444	17.6000	1.0832
44.9726	18.0000	1.0954
45.0009	18.2000	1.1015
45.0292	18.2667	1.1035
45.0574	18.6000	1.1136
45.0857	22.1333	1.2147
45.1140	19.2000	1.1314
45.1422	18.4000	1.1075
45.1705	17.7333	1.0873
45.1987	18.2667	1.1035
45.2270	17.5333	1.0812
45.2553	18.5333	1.1116
45.2835	18.0000	1.0954
45.3118	19.4667	1.1392
45.3401	18.8000	1.1195
45.3683	19.3333	1.1353
45.3966	17.6000	1.0832
45.4249	16.6000	1.0520
45.4531	18.3333	1.1055
45.4814	18.0000	1.0954
45.5097	17.8667	1.0914
45.5379	17.3333	1.0750
45.5662	18.4667	1.1096
45.5945	19.0667	1.1274
45.6227	18.0667	1.0975
45.6510	19.0667	1.1274
45.6793	19.2000	1.1314
45.7075	17.1333	1.0687
45.7358	18.6667	1.1155
45.7641	16.2667	1.0414
45.7923	16.2667	1.0414
45.8206	18.4667	1.1096
45.8489	18.0000	1.0954
45.8771	17.6667	1.0853
45.9054	17.4000	1.0770
45.9337	18.2667	1.1035
45.9619	19.1333	1.1294
45.9902	19.8667	1.1508
46.0184	18.0000	1.0954
46.0467	18.6000	1.1136
46.0750	18.2000	1.1015
46.1032	18.8000	1.1195
46.1315	16.1333	1.0371
46.1598	17.6000	1.0832
46.1880	19.4667	1.1392
46.2163	18.5333	1.1116
46.2446	17.1333	1.0687
46.2728	17.8667	1.0914
46.3011	19.2000	1.1314
46.3294	18.4667	1.1096
46.3576	17.6000	1.0832
46.3859	17.3333	1.0750
46.4142	20.6667	1.1738
46.4424	17.5333	1.0812
46.4707	16.8000	1.0583
46.4990	16.4000	1.0456
46.5272	16.2000	1.0392
46.5555	18.2667	1.1035
46.5838	18.1290	1.0815
46.6120	17.3548	1.0581
46.6403	17.4839	1.0621
46.6686	18.0000	1.0776
46.6968	16.9677	1.0463
46.7251	17.4839	1.0621
46.7534	17.8710	1.0738
46.7816	18.0645	1.0796
46.8099	17.4194	1.0601
46.8382	18.1290	1.0815
46.8664	17.6129	1.0660
46.8947	17.7419	1.0699
46.9229	18.1290	1.0815
46.9512	18.1935	1.0834
46.9795	17.6129	1.0660
47.0077	16.9032	1.0443
47.0360	17.5484	1.0640
47.0643	16.0000	1.0160
47.0925	18.9032	1.1043
47.1208	16.7742	1.0403
47.1491	17.3548	1.0581
47.1773	18.5806	1.0949
47.2056	17.4839	1.0621
47.2339	18.7097	1.0987
47.2621	15.9355	1.0140
47.2904	18.4516	1.0911
47.3187	19.2258	1.1137
47.3469	16.3226	1.0262
47.3752	17.1613	1.0522
47.4035	17.4839	1.0621
47.4317	16.6452	1.0363
47.4600	18.3125	1.0698
47.4883	15.4375	0.9823
47.5165	18.3750	1.0717
47.5448	17.3750	1.0421
47.5731	16.1875	1.0058
47.6013	16.9375	1.0289
47.6296	16.1875	1.0058
47.6579	17.6875	1.0514
47.6861	17.6875	1.0514
47.7144	16.5625	1.0174
47.7426	15.5625	0.9862
47.7709	13.8125	0.9291
47.7992	16.5625	1.0174
47.8274	17.5625	1.0477
47.8557	16.1875	1.0058
47.8840	17.0625	1.0327
47.9122	18.6250	1.0789
47.9405	18.0000	1.0607
47.9688	17.4375	1.0440
47.9970	17.0625	1.0327
48.0253	15.8750	0.9961
48.0536	18.4375	1.0735
48.0818	16.2500	1.0078
48.1101	18.4375	1.0735
48.1384	17.3125	1.0402
48.1666	16.6250	1.0193
48.1949	15.6250	0.9882
48.2232	16.1250	1.0039
48.2514	17.0000	1.0308
48.2797	18.1250	1.0643
48.3080	16.3750	1.0117
48.3362	16.0000	1.0000
48.3645	15.6250	0.9882
48.3928	16.6875	1.0213
48.4210	15.1875	0.9743
48.4493	16.4375	1.0136
48.4776	16.6250	1.0193
48.5058	17.1875	1.0364
48.5341	16.3750	1.0117
48.5624	18.1875	1.0662
48.5906	16.9375	1.0289
48.6189	16.9375	1.0289
48.6471	16.0625	1.0020
48.6754	14.8750	0.9642
48.7037	16.7500	1.0232
48.7319	17.0625	1.0327
48.7602	16.6250	1.0193
48.7885	17.3125	1.0402
48.8167	17.0625	1.0327
48.8450	15.4375	0.9823
48.8733	17.0000	1.0308
48.9015	15.5000	0.9843
48.9298	15.6875	0.9902
48.9581	16.6250	1.0193
48.9863	13.2500	0.9100
49.0146	18.0000	1.0607
49.0429	16.4375	1.0136
49.0711	16.7500	1.0232
49.0994	17.0000	1.0308
49.1277	17.1875	1.0364
49.1559	17.1875	1.0364
49.1842	14.8750	0.9642
49.2125	15.7500	0.9922
49.2407	15.3750	0.9803
49.2690	14.6875	0.9581
49.2973	16.1875	1.0058
49.3255	15.1250	0.9723
49.3538	16.3750	1.0117
49.3821	16.6875	1.0213
49.4103	14.4375	0.9499
49.4386	15.8125	0.9941
49.4668	16.1875	1.0058
49.4951	16.5000	1.0155
49.5234	15.0000	0.9682
49.5516	15.5000	0.9843
49.5799	15.9375	0.9980
49.6082	15.9375	0.9980
49.6364	17.0625	1.0327
49.6647	15.7500	0.9922
49.6930	16.1875	1.0058
49.7212	15.4375	0.9823
49.7495	16.5000	1.0155
49.7778	16.0000	1.0000
49.8060	16.2500	1.0078
49.8343	16.1250	1.0039
49.8626	16.2500	1.0078
49.8908	16.2500	1.0078
49.9191	15.7500	0.9922
49.9474	17.0625	1.0327
49.9756	13.8750	0.9312
50.0039	15.3750	0.9803
50.0322	14.3125	0.9458
50.0604	16.8750	1.0270
50.0887	14.5000	0.9520
50.1170	16.0625	1.0020
50.1452	15.1250	0.9723
50.1735	13.4375	0.9164
50.2018	16.1875	1.0058
50.2300	15.0000	0.9682
50.2583	15.6250	0.9882
50.2865	16.0625	1.0020
50.3148	14.9375	0.9662
50.3431	17.1250	1.0346
50.3713	14.1875	0.9417
50.3996	15.1875	0.9743
50.4279	16.6875	1.0213
50.4561	15.5625	0.9862
50.4844	16.4375	1.0136
50.5127	15.2500	0.9763
50.5409	15.0303	0.9544
50.5692	14.8485	0.9486
50.5975	14.0000	0.9211
50.6257	15.6970	0.9754
50.6540	15.0909	0.9563
50.6823	14.8485	0.9486
50.7105	15.8182	0.9791
50.7388	15.2121	0.9602
50.7671	16.1212	0.9885
50.7953	16.4848	0.9995
50.8236	14.1212	0.9251
50.8519	16.6061	1.0032
50.8801	16.1212	0.9885
50.9084	14.4242	0.9350
50.9367	14.9697	0.9525
50.9649	14.7879	0.9467
50.9932	13.6970	0.9111
51.0215	14.1818	0.9271
51.0497	14.7273	0.9448
51.0780	15.3939	0.9659
51.1063	15.3333	0.9640
51.1345	17.3333	1.0249
51.1628	15.2727	0.9621
51.1910	15.5152	0.9697
51.2193	16.1818	0.9903
51.2476	15.6970	0.9754
51.2758	15.0303	0.9544
51.3041	15.0909	0.9563
51.3324	16.2424	0.9922
51.3606	15.8788	0.9810
51.3889	15.6970	0.9754
51.4172	15.5152	0.9697
51.4454	15.0303	0.9544
51.4737	15.2941	0.9485
51.5020	16.0588	0.9719
51.5302	13.5882	0.8940
51.5585	15.7647	0.9630
51.5868	16.1176	0.9737
51.6150	16.0588	0.9719
51.6433	14.7059	0.9301
51.6716	16.9412	0.9983
51.6998	15.1765	0.9448
51.7281	16.1765	0.9755
51.7564	16.0588	0.9719
51.7846	15.8824	0.9666
51.8129	15.0588	0.9412
51.8412	14.9412	0.9375
51.8694	15.4118	0.9521
51.8977	15.0588	0.9412
51.9260	14.7059	0.9301
51.9542	14.9412	0.9375
51.9825	15.2353	0.9467
52.0107	14.7059	0.9301
52.0390	14.4706	0.9226
52.0673	16.5294	0.9861
52.0955	16.4118	0.9825
52.1238	13.5882	0.8940
52.1521	14.8824	0.9356
52.1803	16.0000	0.9701
52.2086	15.4118	0.9521
52.2369	17.2353	1.0069
52.2651	14.9412	0.9375
52.2934	16.3529	0.9808
52.3217	16.3529	0.9808
52.3499	15.1765	0.9448
52.3782	14.5294	0.9245
52.4065	15.8824	0.9666
52.4347	16.0000	0.9701
52.4630	15.4118	0.9521
52.4913	15.8824	0.9666
52.5195	15.0000	0.9393
52.5478	14.0000	0.9075
52.5761	15.9412	0.9684
52.6043	14.0000	0.9075
52.6326	13.6471	0.8960
52.6609	13.7647	0.8998
52.6891	15.0000	0.9393
52.7174	14.0000	0.9075
52.7457	15.9412	0.9684
52.7739	14.1765	0.9132
52.8022	14.8824	0.9356
52.8305	16.7647	0.9931
52.8587	17.1176	1.0035
52.8870	14.1765	0.9132
52.9152	14.7647	0.9319
52.9435	13.4118	0.8882
52.9718	13.7059	0.8979
53.0000	15.5882	0.9576
53.0283	14.6471	0.9282
53.0566	15.1765	0.9448
53.0848	16.3529	0.9808
53.1131	15.5294	0.9558
53.1414	13.7647	0.8998
53.1696	13.6471	0.8960
53.1979	14.0000	0.9075
53.2262	15.1765	0.9448
53.2544	13.7647	0.8998
53.2827	14.2941	0.9170
53.3110	14.1765	0.9132
53.3392	15.4706	0.9540
53.3675	14.6471	0.9282
53.3958	14.1765	0.9132
53.4240	14.8824	0.9356
53.4523	16.2353	0.9772
53.4806	14.1765	0.9132
53.5088	12.8824	0.8705
53.5371	14.0588	0.9094
53.5654	16.2353	0.9772
53.5936	15.1765	0.9448
53.6219	15.7647	0.9630
53.6502	15.5294	0.9558
53.6784	13.1765	0.8804
53.7067	15.5294	0.9558
53.7349	14.4706	0.9226
53.7632	14.5294	0.9245
53.7915	13.5882	0.8940
53.8197	14.3529	0.9189
53.8480	17.1765	1.0052
53.8763	15.6471	0.9594
53.9045	14.7647	0.9319
53.9328	16.0588	0.9719
53.9611	13.6471	0.8960
53.9893	13.7647	0.8998
54.0176	14.4706	0.9226
54.0459	16.1176	0.9737
54.0741	15.2353	0.9467
54.1024	14.7059	0.9301
54.1307	16.2941	0.9790
54.1589	15.9412	0.9684
54.1872	14.1765	0.9132
54.2155	15.1765	0.9448
54.2437	15.2941	0.9485
54.2720	16.3529	0.9808
54.3003	17.0588	1.0017
54.3285	14.0588	0.9094
54.3568	17.6471	1.0189
54.3851	16.2353	0.9772
54.4133	15.0588	0.9412
54.4416	16.4118	0.9825
54.4699	14.2941	0.9170
54.4981	16.4118	0.9825
54.5264	16.0571	0.9579
54.5546	14.9143	0.9232
54.5829	17.0286	0.9864
54.6112	16.1143	0.9596
54.6394	15.6571	0.9459
54.6677	15.2000	0.9320
54.6960	16.5143	0.9714
54.7242	16.9714	0.9848
54.7525	16.1143	0.9596
54.7808	16.4000	0.9681
54.8090	16.4000	0.9681
54.8373	16.2286	0.9630
54.8656	18.4571	1.0270
54.8938	17.9429	1.0126
54.9221	16.2857	0.9647
54.9504	17.2571	0.9930
54.9786	19.0857	1.0443
55.0069	16.1714	0.9613
55.0352	19.5429	1.0568
55.0634	18.4571	1.0270
55.0917	19.6000	1.0583
55.1200	19.7714	1.0629
55.1482	20.2857	1.0767
55.1765	19.2000	1.0474
55.2048	20.9714	1.0947
55.2330	23.3143	1.1542
55.2613	20.9143	1.0932
55.2896	25.3714	1.2041
55.3178	22.2857	1.1285
55.3461	23.5429	1.1599
55.3744	23.1429	1.1500
55.4026	26.3429	1.2269
55.4309	29.5429	1.2993
55.4591	28.8000	1.2829
55.4874	29.6571	1.3018
55.5157	30.6111	1.3041
55.5439	34.1667	1.3777
55.5722	34.6667	1.3878
55.6005	37.9444	1.4519
55.6287	36.4444	1.4229
55.6570	42.7222	1.5406
55.6853	41.3889	1.5164
55.7135	44.5556	1.5733
55.7418	46.9444	1.6149
55.7701	44.3889	1.5704
55.7983	42.8889	1.5436
55.8266	46.3333	1.6044
55.8549	46.7778	1.6121
55.8831	46.0000	1.5986
55.9114	45.7222	1.5938
55.9397	44.3889	1.5704
55.9679	44.3333	1.5694
55.9962	43.1111	1.5476
56.0245	43.0000	1.5456
56.0527	43.8333	1.5605
56.0810	42.1111	1.5295
56.1093	35.2222	1.3989
56.1375	40.0556	1.4917
56.1658	38.7778	1.4678
56.1941	39.9444	1.4897
56.2223	38.1111	1.4551
56.2506	40.8889	1.5072
56.2788	36.6111	1.4262
56.3071	38.8889	1.4699
56.3354	36.0000	1.4142
56.3636	33.8333	1.3710
56.3919	37.1111	1.4359
56.4202	37.7778	1.4487
56.4484	37.1667	1.4369
56.4767	35.6111	1.4066
56.5050	34.8889	1.3922
56.5332	34.8333	1.3911
56.5615	36.1667	1.4175
56.5898	36.1111	1.4164
56.6180	36.0000	1.4142
56.6463	34.1667	1.3777
56.6746	35.7222	1.4087
56.7028	34.5556	1.3856
56.7311	36.2778	1.4197
56.7594	31.4444	1.3217
56.7876	36.1111	1.4164
56.8159	36.5556	1.4251
56.8442	35.1667	1.3977
56.8724	40.2222	1.4948
56.9007	36.1111	1.4164
56.9290	36.5000	1.4240
56.9572	36.7778	1.4294
56.9855	35.3333	1.4011
57.0138	38.6111	1.4646
57.0420	38.1667	1.4561
57.0703	37.5556	1.4444
57.0986	40.7778	1.5051
57.1268	39.5556	1.4824
57.1551	36.7778	1.4294
57.1833	37.1667	1.4369
57.2116	38.8333	1.4688
57.2399	42.1667	1.5306
57.2681	39.2778	1.4772
57.2964	42.2222	1.5316
57.3247	43.2778	1.5506
57.3529	42.5000	1.5366
57.3812	42.5000	1.5366
57.4095	41.0556	1.5103
57.4377	43.8889	1.5615
57.4660	44.3889	1.5704
57.4943	45.7778	1.5947
57.5225	42.6111	1.5386
57.5508	41.7222	1.5225
57.5791	43.7222	1.5585
57.6073	43.4444	1.5536
57.6356	45.5556	1.5909
57.6639	41.7778	1.5235
57.6921	45.9444	1.5976
57.7204	46.7778	1.6121
57.7487	44.6111	1.5743
57.7769	46.0556	1.5996
57.8052	45.3889	1.5880
57.8335	41.9444	1.5265
57.8617	47.4444	1.6235
57.8900	42.7778	1.5416
57.9183	41.6667	1.5215
57.9465	42.3889	1.5346
57.9748	39.6667	1.4845
58.0030	41.8889	1.5255
58.0313	37.4444	1.4423
58.0596	38.2222	1.4572
58.0878	35.9444	1.4131
58.1161	37.2222	1.4380
58.1444	40.0000	1.4907
58.1726	43.8889	1.5615
58.2009	44.5000	1.5723
58.2292	53.6111	1.7258
58.2574	52.8333	1.7132
58.2857	57.1111	1.7812
58.3140	51.5556	1.6924
58.3422	47.5000	1.6245
58.3705	43.8333	1.5605
58.3988	40.7778	1.5051
58.4270	41.3889	1.5164
58.4553	36.7222	1.4283
58.4836	34.4865	1.3653
58.5118	27.2973	1.2147
58.5401	25.6216	1.1768
58.5684	25.2973	1.1694
58.5966	23.1351	1.1183
58.6249	20.6486	1.0565
58.6532	18.1622	0.9908
58.6814	17.5676	0.9745
58.7097	18.0000	0.9864
58.7380	17.3514	0.9685
58.7662	16.8108	0.9533
58.7945	16.7027	0.9502
58.8227	17.5135	0.9730
58.8510	18.0541	0.9879
58.8793	15.3514	0.9109
58.9075	15.3514	0.9109
58.9358	15.4595	0.9141
58.9641	15.4595	0.9141
58.9923	14.9730	0.8996
59.0206	15.8919	0.9268
59.0489	16.4865	0.9440
59.0771	14.3784	0.8816
59.1054	15.0270	0.9013
59.1337	15.4054	0.9125
59.1619	13.5135	0.8547
59.1902	12.8108	0.8322
59.2185	13.8919	0.8666
59.2467	14.4324	0.8833
59.2750	13.6757	0.8598
59.3033	15.6757	0.9205
59.3315	13.4595	0.8530
59.3598	13.3514	0.8495
59.3881	14.3784	0.8816
59.4163	14.2162	0.8766
59.4446	14.0000	0.8699
59.4729	13.6757	0.8598
59.5011	14.3784	0.8816
59.5294	14.9474	0.8870
59.5577	14.2105	0.8648
59.5859	13.9474	0.8568
59.6142	12.7895	0.8204
59.6425	13.2632	0.8355
59.6707	14.2632	0.8664
59.6990	15.0526	0.8901
59.7272	14.2105	0.8648
59.7555	13.0526	0.8288
59.7838	13.3158	0.8372
59.8120	13.4737	0.8421
59.8403	13.7895	0.8519
59.8686	14.0526	0.8600
59.8968	15.4737	0.9024
59.9251	13.7895	0.8519
59.9534	14.1579	0.8632
59.9816	13.2632	0.8355
60.0099	14.4737	0.8728
60.0382	12.4737	0.8103
60.0664	13.7368	0.8503
60.0947	12.9474	0.8255
60.1230	13.0000	0.8272
60.1512	12.4737	0.8103
60.1795	12.4737	0.8103
60.2078	13.3684	0.8388
60.2360	13.1579	0.8322
60.2643	12.5263	0.8120
60.2926	12.0000	0.7947
60.3208	13.0526	0.8288
60.3491	11.8421	0.7895
60.3774	12.8421	0.8221
60.4056	14.1579	0.8632
60.4339	14.1053	0.8616
60.4622	14.3158	0.8680
60.4904	14.0526	0.8600
60.5187	14.1053	0.8616
60.5469	13.4737	0.8421
60.5752	12.5789	0.8137
60.6035	14.0000	0.8584
60.6317	13.7895	0.8519
60.6600	12.5263	0.8120
60.6883	14.7895	0.8823
60.7165	12.7368	0.8188
60.7448	12.0526	0.7965
60.7731	14.8947	0.8854
60.8013	13.6842	0.8487
60.8296	13.2632	0.8355
60.8579	12.6316	0.8154
60.8861	12.5789	0.8137
60.9144	12.5789	0.8137
60.9427	13.4737	0.8421
60.9709	13.4211	0.8405
60.9992	12.3158	0.8051
61.0275	12.8421	0.8221
61.0557	12.5789	0.8137
61.0840	13.0526	0.8288
61.1123	13.1053	0.8305
61.1405	12.5263	0.8120
61.1688	13.5263	0.8437
61.1971	11.9474	0.7930
61.2253	12.8421	0.8221
61.2536	13.6316	0.8470
61.2819	14.5263	0.8744
61.3101	15.1579	0.8932
61.3384	12.4211	0.8085
61.3667	13.3158	0.8372
61.3949	13.0000	0.8272
61.4232	13.3684	0.8388
61.4514	12.8947	0.8238
61.4797	13.6842	0.8487
61.5080	12.8421	0.8221
61.5362	13.0526	0.8288
61.5645	12.0526	0.7965
61.5928	13.2105	0.8338
61.6210	12.5789	0.8137
61.6493	13.3158	0.8372
61.6776	14.8947	0.8854
61.7058	11.6842	0.7842
61.7341	11.4737	0.7771
61.7624	11.5263	0.7789
61.7906	13.4737	0.8421
61.8189	12.5789	0.8137
61.8472	13.8421	0.8535
61.8754	13.7368	0.8503
61.9037	12.9474	0.8255
61.9320	13.2632	0.8355
61.9602	12.3684	0.8068
61.9885	14.1579	0.8632
62.0168	12.2632	0.8034
62.0450	14.5263	0.8744
62.0733	12.7895	0.8204
62.1016	12.7368	0.8188
62.1298	15.2632	0.8963
62.1581	15.1579	0.8932
62.1864	12.7895	0.8204
62.2146	13.7368	0.8503
62.2429	11.7895	0.7877
62.2711	13.4211	0.8405
62.2994	13.1053	0.8305
62.3277	12.8421	0.8221
62.3559	13.7895	0.8519
62.3842	12.6316	0.8154
62.4125	14.1579	0.8632
62.4407	13.6842	0.8487
62.4690	13.4359	0.8301
62.4973	14.7179	0.8688
62.5255	12.9231	0.8141
62.5538	12.7179	0.8076
62.5821	12.8205	0.8108
62.6103	12.7692	0.8092
62.6386	13.5897	0.8348
62.6669	12.9231	0.8141
62.6951	12.9231	0.8141
62.7234	13.3846	0.8285
62.7517	12.2564	0.7928
62.7799	12.2564	0.7928
62.8082	14.1026	0.8504
62.8365	13.7436	0.8395
62.8647	12.3590	0.7961
62.8930	10.9744	0.7502
62.9213	10.9744	0.7502
62.9495	11.3846	0.7641
62.9778	13.0256	0.8173
63.0061	11.6923	0.7743
63.0343	12.2564	0.7928
63.0626	11.7436	0.7760
63.0908	12.9744	0.8157
63.1191	12.3077	0.7945
63.1474	12.4615	0.7994
63.1756	11.8974	0.7811
63.2039	11.4872	0.7675
63.2322	12.2051	0.7911
63.2604	12.7179	0.8076
63.2887	11.3333	0.7624
63.3170	11.3846	0.7641
63.3452	12.3590	0.7961
63.3735	13.4872	0.8317
63.4018	12.8718	0.8125
63.4300	10.3590	0.7289
63.4583	12.9231	0.8141
63.4866	13.1795	0.8221
63.5148	10.9744	0.7502
63.5431	12.6667	0.8060
63.5714	13.9500	0.8352
63.5996	12.3500	0.7858
63.6279	14.6829	0.8463
63.6562	12.3902	0.7774
63.6844	11.4146	0.7462
63.7127	12.1463	0.7697
63.7410	12.1951	0.7713
63.7692	11.8537	0.7604
63.7975	12.2439	0.7728
63.8258	11.5122	0.7494
63.8540	12.3415	0.7759
63.8823	12.5366	0.7820
63.9106	11.7561	0.7573
63.9388	12.1463	0.7697
63.9671	11.7561	0.7573
63.9953	12.5854	0.7835
64.0236	12.5366	0.7820
64.0519	12.8293	0.7911
64.0801	12.1951	0.7713
64.1084	13.0732	0.7986
64.1367	12.4878	0.7805
64.1649	11.9512	0.7635
64.1932	12.3415	0.7759
64.2215	12.0488	0.7666
64.2497	11.9512	0.7635
64.2780	13.0244	0.7971
64.3063	13.7073	0.8177
64.3345	12.0000	0.7651
64.3628	13.0244	0.7971
64.3911	13.0244	0.7971
64.4193	13.4634	0.8104
64.4476	13.1707	0.8015
64.4759	12.0976	0.7682
64.5041	11.2195	0.7398
64.5324	13.2683	0.8045
64.5607	12.1463	0.7697
64.5889	12.7805	0.7896
64.6172	12.9756	0.7956
64.6455	12.5366	0.7820
64.6737	12.9268	0.7941
64.7020	13.8537	0.8221
64.7303	13.1220	0.8001
64.7585	12.6829	0.7866
64.7868	12.0952	0.7589
64.8150	13.1628	0.7824
64.8433	11.2093	0.7221
64.8716	12.6047	0.7657
64.8998	11.4419	0.7295
64.9281	11.7209	0.7383
64.9564	11.4884	0.7310
64.9846	12.0465	0.7485
65.0129	11.0233	0.7160
65.0412	11.8605	0.7427
65.0694	12.1860	0.7529
65.0977	11.5814	0.7339
65.1260	12.8837	0.7741
65.1542	13.2558	0.7852
65.1825	12.8837	0.7741
65.2108	12.9767	0.7769
65.2390	12.6977	0.7685
65.2673	11.4419	0.7295
65.2956	12.4651	0.7614
65.3238	13.3023	0.7866
65.3521	13.2093	0.7838
65.3804	13.6279	0.7962
65.4086	10.8372	0.7100
65.4369	12.4651	0.7614
65.4652	12.3721	0.7586
65.4934	12.5116	0.7628
65.5217	11.7209	0.7383
65.5500	12.0930	0.7500
65.5782	13.8605	0.8029
65.6065	12.3256	0.7572
65.6348	13.3023	0.7866
65.6630	11.6279	0.7354
65.6913	11.7209	0.7383
65.7195	11.2558	0.7236
65.7478	12.7907	0.7713
65.7761	12.7442	0.7699
65.8043	12.7442	0.7699
65.8326	10.6047	0.7023
65.8609	12.4186	0.7600
65.8891	12.2326	0.7543
65.9174	12.7442	0.7699
65.9457	12.4651	0.7614
65.9739	11.9545	0.7371
66.0022	12.5000	0.7538
66.0305	12.0444	0.7316
66.0587	12.4000	0.7424
66.0870	11.8667	0.7262
66.1153	11.6889	0.7208
66.1435	12.1333	0.7343
66.1718	12.5778	0.7477
66.2001	12.8000	0.7542
66.2283	12.0889	0.7330
66.2566	11.1111	0.7027
66.2849	13.5111	0.7749
66.3131	11.4667	0.7139
66.3414	12.4444	0.7437
66.3697	12.1778	0.7357
66.3979	11.9556	0.7289
66.4262	12.5333	0.7463
66.4545	12.5778	0.7477
66.4827	11.4667	0.7139
66.5110	11.7778	0.7235
66.5392	12.1778	0.7357
66.5675	12.4000	0.7424
66.5958	12.3111	0.7397
66.6240	11.9556	0.7289
66.6523	12.6667	0.7503
66.6806	12.0444	0.7316
66.7088	12.3111	0.7397
66.7371	12.9333	0.7582
66.7654	12.6222	0.7490
66.7936	11.2889	0.7083
66.8219	13.1111	0.7634
66.8502	10.0889	0.6696
66.8784	12.5333	0.7463
66.9067	10.8889	0.6957
66.9350	12.8000	0.7542
66.9632	12.1778	0.7357
66.9915	12.9333	0.7582
67.0198	12.6667	0.7503
67.0480	11.9556	0.7289
67.0763	11.8222	0.7249
67.1046	11.2444	0.7069
67.1328	10.2667	0.6755
67.1611	13.0000	0.7518
67.1894	12.3913	0.7340
67.2176	11.0435	0.6929
67.2459	13.0638	0.7456
67.2742	12.8936	0.7407
67.3024	12.8511	0.7395
67.3307	12.5106	0.7296
67.3589	12.3404	0.7247
67.3872	12.5957	0.7321
67.4155	12.4681	0.7284
67.4437	11.9574	0.7133
67.4720	11.4894	0.6992
67.5003	13.4468	0.7564
67.5285	12.8085	0.7383
67.5568	12.1277	0.7184
67.5851	13.3617	0.7540
67.6133	12.9362	0.7419
67.6416	13.0213	0.7444
67.6699	12.5957	0.7321
67.6981	12.2128	0.7209
67.7264	12.1277	0.7184
67.7547	12.2979	0.7234
67.7829	12.6383	0.7333
67.8112	12.7660	0.7370
67.8395	12.1277	0.7184
67.8677	12.2979	0.7234
67.8960	14.2979	0.7800
67.9243	12.8085	0.7383
67.9525	13.1489	0.7480
67.9808	12.3404	0.7247
68.0091	12.8936	0.7407
68.0373	12.2553	0.7222
68.0656	13.5319	0.7588
68.0939	15.0638	0.8006
68.1221	12.2553	0.7222
68.1504	12.3404	0.7247
68.1787	13.0638	0.7456
68.2069	12.4255	0.7271
68.2352	12.8085	0.7383
68.2634	12.1277	0.7184
68.2917	13.3617	0.7540
68.3200	12.2917	0.7156
68.3482	14.2500	0.7706
68.3765	12.9583	0.7348
68.4048	12.4583	0.7205
68.4330	12.9583	0.7348
68.4613	11.7083	0.6985
68.4896	13.5102	0.7426
68.5178	13.3469	0.7381
68.5461	13.4286	0.7403
68.5744	14.1224	0.7592
68.6026	15.2245	0.7883
68.6309	13.8367	0.7515
68.6592	13.3061	0.7370
68.6874	13.5510	0.7437
68.7157	14.5714	0.7712
68.7440	14.0408	0.7570
68.7722	14.4082	0.7669
68.8005	13.5918	0.7448
68.8288	15.0612	0.7841
68.8570	13.5918	0.7448
68.8853	13.7959	0.7504
68.9136	15.6327	0.7988
68.9418	14.5714	0.7712
68.9701	14.2041	0.7614
68.9984	15.7143	0.8009
69.0266	15.9592	0.8071
69.0549	15.9592	0.8071
69.0831	15.5918	0.7977
69.1114	16.0816	0.8102
69.1397	16.9388	0.8315
69.1679	17.0612	0.8345
69.1962	16.2449	0.8143
69.2245	16.2857	0.8153
69.2527	17.2245	0.8385
69.2810	18.7347	0.8745
69.3093	19.1837	0.8849
69.3375	19.5102	0.8924
69.3658	19.5918	0.8942
69.3941	21.2245	0.9308
69.4223	21.7143	0.9414
69.4506	22.4898	0.9581
69.4789	23.6735	0.9830
69.5071	24.9600	0.9992
69.5354	25.8400	1.0167
69.5637	25.9600	1.0190
69.5919	29.7200	1.0903
69.6202	32.7600	1.1447
69.6485	34.9200	1.1819
69.6767	38.6000	1.2426
69.7050	40.4706	1.2598
69.7333	42.9804	1.2983
69.7615	47.0196	1.3579
69.7898	52.9020	1.4403
69.8181	50.0784	1.4014
69.8463	53.8431	1.4531
69.8746	57.2157	1.4979
69.9028	57.9608	1.5076
69.9311	57.2549	1.4984
69.9594	58.2353	1.5112
69.9876	60.5882	1.5414
70.0159	61.5686	1.5539
70.0442	58.1961	1.5107
70.0724	59.8431	1.5319
70.1007	59.2157	1.5239
70.1290	58.1569	1.5102
70.1572	56.9804	1.4948
70.1855	54.7451	1.4652
70.2138	54.9412	1.4678
70.2420	52.7451	1.4382
70.2703	51.4902	1.4210
70.2986	52.2353	1.4312
70.3268	49.4902	1.3931
70.3551	48.8627	1.3843
70.3834	46.9020	1.3562
70.4116	45.1373	1.3304
70.4399	46.0784	1.3442
70.4682	46.1176	1.3448
70.4964	44.1569	1.3159
70.5247	44.5490	1.3217
70.5530	41.5686	1.2768
70.5812	41.7647	1.2798
70.6095	42.0392	1.2840
70.6378	38.5098	1.2289
70.6660	35.6923	1.1717
70.6943	35.7692	1.1729
70.7226	40.2692	1.2445
70.7508	37.2692	1.1973
70.7791	36.8077	1.1898
70.8073	38.8077	1.2217
70.8356	35.6538	1.1710
70.8639	35.4231	1.1672
70.8921	33.8846	1.1416
70.9204	37.2692	1.1973
70.9487	36.0755	1.1668
70.9769	35.7736	1.1619
71.0052	35.2830	1.1539
71.0335	32.7170	1.1111
71.0617	35.3585	1.1551
71.0900	33.6981	1.1277
71.1183	35.3208	1.1545
71.1465	34.4151	1.1396
71.1748	35.3585	1.1551
71.2031	34.8302	1.1464
71.2313	36.3774	1.1716
71.2596	33.8113	1.1296
71.2879	35.0566	1.1502
71.3161	34.4151	1.1396
71.3444	36.3774	1.1716
71.3727	35.2453	1.1533
71.4009	34.6792	1.1440
71.4292	34.7170	1.1446
71.4575	36.1887	1.1686
71.4857	37.2075	1.1849
71.5140	36.3774	1.1716
71.5423	38.1887	1.2005
71.5705	39.6226	1.2228
71.5988	38.6038	1.2070
71.6270	39.0943	1.2146
71.6553	38.4906	1.2052
71.6836	39.6226	1.2228
71.7118	39.0566	1.2140
71.7401	39.4717	1.2204
71.7684	41.4340	1.2504
71.7966	39.0566	1.2140
71.8249	40.6667	1.2273
71.8532	41.8889	1.2456
71.8814	40.9259	1.2312
71.9097	42.0370	1.2478
71.9380	41.1481	1.2345
71.9662	40.7037	1.2278
71.9945	43.2963	1.2663
72.0228	42.7778	1.2587
72.0510	43.4444	1.2685
72.0793	41.5926	1.2412
72.1076	43.2963	1.2663
72.1358	43.4074	1.2679
72.1641	42.1091	1.2374
72.1924	44.3636	1.2701
72.2206	45.6364	1.2882
72.2489	44.1818	1.2675
72.2772	42.4000	1.2417
72.3054	47.6727	1.3166
72.3337	48.8000	1.3321
72.3620	48.7273	1.3311
72.3902	48.1091	1.3227
72.4185	45.5273	1.2867
72.4468	46.6545	1.3025
72.4750	46.1091	1.2949
72.5033	46.4000	1.2990
72.5315	46.1091	1.2949
72.5598	44.2545	1.2686
72.5881	47.5636	1.3151
72.6163	46.1091	1.2949
72.6446	47.8909	1.3197
72.6729	45.9636	1.2928
72.7011	44.4364	1.2712
72.7294	44.0364	1.2654
72.7577	43.5273	1.2581
72.7859	46.1818	1.2959
72.8142	42.9455	1.2497
72.8425	44.6182	1.2738
72.8707	42.8364	1.2481
72.8990	43.2364	1.2539
72.9273	43.7455	1.2612
72.9555	46.8364	1.3050
72.9838	44.4727	1.2717
73.0121	48.8571	1.3209
73.0403	46.6429	1.2907
73.0686	51.6429	1.3581
73.0969	58.1071	1.4406
73.1251	57.8929	1.4379
73.1534	63.3214	1.5038
73.1817	65.8929	1.5341
73.2099	68.7857	1.5674
73.2382	65.1071	1.5249
73.2665	60.5357	1.4704
73.2947	55.1786	1.4038
73.3230	51.8214	1.3604
73.3512	48.0714	1.3103
73.3795	43.7544	1.2390
73.4078	43.9298	1.2415
73.4360	41.2982	1.2038
73.4643	38.9474	1.1690
73.4926	31.6842	1.0544
73.5208	27.0175	0.9736
73.5491	24.0000	0.9177
73.5774	23.2982	0.9041
73.6056	21.3684	0.8659
73.6339	19.6140	0.8296
73.6622	18.6316	0.8085
73.6904	17.1930	0.7767
73.7187	17.8596	0.7916
73.7470	17.8947	0.7924
73.7752	17.4737	0.7830
73.8035	16.1404	0.7525
73.8318	15.3333	0.7335
73.8600	14.8421	0.7216
73.8883	15.4035	0.7352
73.9166	14.0000	0.7009
73.9448	14.5614	0.7148
73.9731	14.3158	0.7087
74.0014	14.2807	0.7079
74.0296	14.2456	0.7070
74.0579	13.8596	0.6974
74.0862	13.7193	0.6938
74.1144	14.1754	0.7053
74.1427	13.2982	0.6831
74.1709	14.5517	0.7084
74.1992	14.2069	0.6999
74.2275	12.3448	0.6524
74.2557	13.1034	0.6722
74.2840	12.8966	0.6669
74.3123	12.2414	0.6497
74.3405	11.8966	0.6405
74.3688	13.5172	0.6827
74.3971	12.2759	0.6506
74.4253	13.1379	0.6731
74.4536	12.2414	0.6497
74.4819	14.0345	0.6957
74.5101	13.9310	0.6931
74.5384	13.1379	0.6731
74.5667	12.4138	0.6543
74.5949	12.9655	0.6686
74.6232	12.4068	0.6485
74.6515	12.9492	0.6625
74.6797	12.3390	0.6467
74.7080	13.2881	0.6712
74.7363	12.7458	0.6573
74.7645	12.1695	0.6423
74.7928	12.5085	0.6512
74.8211	12.5763	0.6529
74.8493	13.4576	0.6754
74.8776	12.0339	0.6387
74.9059	12.6780	0.6556
74.9341	12.5763	0.6529
74.9624	11.9661	0.6369
74.9907	13.2542	0.6703
75.0189	12.2034	0.6432
75.0472	12.5085	0.6512
75.0754	11.5254	0.6251
75.1037	12.1017	0.6405
75.1320	12.2712	0.6450
75.1602	11.3559	0.6204
75.1885	12.7458	0.6573
75.2168	11.8305	0.6333
75.2450	12.9153	0.6617
75.2733	12.0678	0.6396
75.3016	11.7288	0.6305
75.3298	12.5763	0.6529
75.3581	13.0333	0.6591
75.3864	12.4667	0.6446
75.4146	11.8000	0.6272
75.4429	11.3333	0.6146
75.4712	12.4667	0.6446
75.4994	11.9333	0.6307
75.5277	12.0333	0.6333
75.5560	11.0667	0.6074
75.5842	11.7667	0.6263
75.6125	11.3333	0.6146
75.6408	11.4333	0.6173
75.6690	11.1333	0.6092
75.6973	12.2000	0.6377
75.7256	11.9333	0.6307
75.7538	12.8000	0.6532
75.7821	12.0333	0.6333
75.8104	12.2000	0.6377
75.8386	11.9672	0.6264
75.8669	12.4590	0.6391
75.8951	11.9016	0.6247
75.9234	11.6066	0.6169
75.9517	11.6721	0.6186
75.9799	12.0000	0.6273
76.0082	11.0820	0.6028
76.0365	11.4426	0.6125
76.0647	12.6885	0.6450
76.0930	11.2459	0.6072
76.1213	12.2951	0.6349
76.1495	12.2295	0.6332
76.1778	11.8689	0.6238
76.2061	11.0820	0.6028
76.2343	12.5246	0.6408
76.2626	12.6230	0.6433
76.2909	10.5902	0.5893
76.3191	12.6230	0.6433
76.3474	12.5902	0.6425
76.3757	12.3607	0.6366
76.4039	12.3607	0.6366
76.4322	11.3443	0.6099
76.4605	11.3115	0.6090
76.4887	12.2295	0.6332
76.5170	12.0000	0.6222
76.5453	10.3871	0.5789
76.5735	12.2581	0.6288
76.6018	10.7419	0.5887
76.6301	12.7742	0.6419
76.6583	12.1613	0.6263
76.6866	12.0645	0.6238
76.7149	11.9032	0.6197
76.7431	10.8387	0.5913
76.7714	12.1935	0.6272
76.7996	10.8065	0.5904
76.8279	12.4839	0.6346
76.8562	13.1613	0.6516
76.8844	11.3548	0.6052
76.9127	11.5161	0.6095
76.9410	11.0968	0.5983
76.9692	10.1290	0.5716
76.9975	11.8065	0.6171
77.0258	10.4839	0.5815
77.0540	11.8710	0.6188
77.0823	12.3810	0.6269
77.1106	11.1429	0.5948
77.1388	11.1746	0.5956
77.1671	11.6190	0.6073
77.1954	11.7143	0.6098
77.2236	11.0476	0.5922
77.2519	11.7460	0.6106
77.2802	11.6825	0.6090
77.3084	11.7778	0.6115
77.3367	11.9683	0.6164
77.3650	10.5714	0.5793
77.3932	12.6032	0.6325
77.4215	11.1746	0.5956
77.4498	11.2698	0.5981
77.4780	12.4762	0.6293
77.5063	11.8730	0.6139
77.5346	11.1746	0.5956
77.5628	11.3016	0.5990
77.5911	11.5238	0.6048
77.6193	10.4444	0.5758
77.6476	11.8730	0.6139
77.6759	10.8254	0.5862
77.7041	10.7813	0.5804
77.7324	11.7188	0.6052
77.7607	10.9375	0.5846
77.7889	12.9688	0.6366
77.8172	11.7188	0.6052
77.8455	11.5000	0.5995
77.8737	11.5000	0.5995
77.9020	11.5000	0.5995
77.9303	11.5938	0.6019
77.9585	13.0313	0.6381
77.9868	11.5000	0.5995
78.0151	11.4688	0.5987
78.0433	10.6563	0.5771
78.0716	11.8125	0.6076
78.0999	11.3438	0.5954
78.1281	10.8438	0.5821
78.1564	12.3438	0.6211
78.1847	11.7188	0.6052
78.2129	10.0313	0.5599
78.2412	10.6563	0.5771
78.2695	10.9375	0.5846
78.2977	11.6923	0.5998
78.3260	11.8154	0.6030
78.3543	12.6462	0.6238
78.3825	11.2923	0.5895
78.4108	11.3231	0.5903
78.4390	11.2000	0.5870
78.4673	10.7385	0.5748
78.4956	11.3231	0.5903
78.5238	10.0000	0.5547
78.5521	11.6923	0.5998
78.5804	11.6000	0.5974
78.6086	11.3538	0.5911
78.6369	11.8462	0.6037
78.6652	10.3385	0.5640
78.6934	11.0769	0.5838
78.7217	12.3385	0.6162
78.7500	10.2462	0.5615
78.7782	11.3538	0.5911
78.8065	10.7385	0.5748
78.8348	10.2769	0.5623
78.8630	10.2727	0.5579
78.8913	11.0303	0.5781
78.9196	11.8182	0.5984
78.9478	11.9697	0.6023
78.9761	11.8182	0.5984
79.0044	11.7879	0.5977
79.0326	12.2121	0.6083
79.0609	10.2727	0.5579
79.0892	10.8788	0.5742
79.1174	10.4545	0.5629
79.1457	11.0000	0.5774
79.1740	11.3636	0.5868
79.2022	10.7576	0.5710
79.2305	11.2121	0.5829
79.2588	11.7273	0.5961
79.2870	11.9697	0.6023
79.3153	11.4242	0.5884
79.3435	11.1515	0.5813
79.3718	11.3030	0.5852
79.4001	10.7576	0.5710
79.4283	11.7273	0.5961
79.4566	11.3636	0.5868
79.4849	11.5152	0.5907
79.5131	11.9394	0.6015
79.5414	11.3433	0.5819
79.5697	10.7164	0.5656
79.5979	11.1940	0.5781
79.6262	11.3731	0.5827
79.6545	10.9254	0.5711
79.6827	11.1642	0.5773
79.7110	12.0299	0.5992
79.7393	11.7612	0.5925
79.7675	11.4627	0.5850
79.7958	10.3582	0.5561
79.8241	10.1194	0.5496
79.8523	10.2985	0.5545
79.8806	11.8806	0.5955
79.9089	11.2537	0.5796
79.9371	11.4328	0.5842
79.9654	10.9254	0.5711
79.9937	9.8507	0.5423
80.0219	11.0149	0.5734
80.0502	10.9118	0.5665
80.0785	11.7647	0.5882
80.1067	11.5294	0.5823
80.1350	10.9412	0.5673
80.1632	10.4118	0.5534
80.1915	11.1765	0.5733
80.2198	10.8235	0.5642
80.2480	11.2647	0.5756
80.2763	12.0882	0.5963
80.3046	10.8235	0.5642
80.3328	10.5588	0.5573
80.3611	11.3235	0.5771
80.3894	11.3529	0.5778
80.4176	10.6765	0.5604
80.4459	10.9706	0.5680
80.4742	11.6176	0.5845
80.5024	10.6176	0.5588
80.5307	11.7059	0.5868
80.5590	11.3529	0.5778
80.5872	11.1471	0.5726
80.6155	11.1765	0.5733
80.6438	11.6176	0.5845
80.6720	11.0000	0.5688
80.7003	11.2647	0.5756
80.7286	10.3235	0.5510
80.7568	12.0580	0.5912
80.7851	11.5072	0.5775
80.8134	11.2464	0.5709
80.8416	10.8696	0.5613
80.8699	11.5942	0.5797
80.8982	12.0000	0.5898
80.9264	11.8841	0.5869
80.9547	10.6087	0.5545
80.9830	10.5507	0.5530
81.0112	11.8261	0.5855
81.0395	11.4493	0.5761
81.0677	10.7536	0.5583
81.0960	10.0870	0.5407
81.1243	11.8551	0.5862
81.1525	12.0580	0.5912
81.1808	10.9855	0.5643
81.2091	10.6000	0.5503
81.2373	10.6571	0.5518
81.2656	10.9429	0.5592
81.2939	12.0286	0.5862
81.3221	11.4000	0.5707
81.3504	10.3429	0.5436
81.3787	11.8000	0.5806
81.4069	12.1429	0.5890
81.4352	11.5714	0.5750
81.4635	10.8000	0.5555
81.4917	10.3429	0.5436
81.5200	11.4000	0.5707
81.5483	11.3429	0.5693
81.5765	11.0857	0.5628
81.6048	12.3714	0.5945
81.6331	11.8571	0.5820
81.6613	10.9143	0.5584
81.6896	12.1143	0.5883
81.7179	11.3143	0.5686
81.7461	11.0571	0.5621
81.7744	12.3429	0.5938
81.8027	11.7714	0.5799
81.8309	11.0571	0.5621
81.8592	11.8571	0.5820
81.8874	11.2857	0.5678
81.9157	12.8286	0.6054
81.9440	12.2857	0.5925
81.9722	12.0571	0.5869
82.0005	12.2817	0.5882
82.0288	10.5070	0.5440
82.0570	13.6620	0.6204
82.0853	12.1127	0.5841
82.1136	12.2817	0.5882
82.1418	12.9577	0.6042
82.1701	13.0141	0.6055
82.1984	13.0141	0.6055
82.2266	13.7183	0.6216
82.2549	13.0423	0.6061
82.2832	12.7606	0.5995
82.3114	14.3380	0.6355
82.3397	14.7042	0.6436
82.3680	14.7606	0.6448
82.3962	14.6944	0.6389
82.4245	15.9167	0.6649
82.4528	15.0000	0.6455
82.4810	15.9722	0.6661
82.5093	16.1667	0.6701
82.5376	17.9167	0.7055
82.5658	20.7500	0.7592
82.5941	18.5556	0.7179
82.6224	20.3333	0.7515
82.6506	20.2500	0.7500
82.6789	21.8611	0.7793
82.7071	22.3333	0.7876
82.7354	22.1111	0.7837
82.7637	22.3889	0.7886
82.7919	24.5000	0.8250
82.8202	23.6389	0.8103
82.8485	24.0556	0.8174
82.8767	25.1389	0.8356
82.9050	25.4167	0.8402
82.9333	23.9722	0.8160
82.9615	23.9722	0.8160
82.9898	24.2500	0.8207
83.0181	23.8333	0.8137
83.0463	23.7222	0.8118
83.0746	23.2222	0.8032
83.1029	24.3611	0.8226
83.1311	23.4444	0.8070
83.1594	23.8056	0.8132
83.1877	22.5000	0.7906
83.2159	22.4932	0.7850
83.2442	22.1644	0.7793
83.2725	21.9726	0.7759
83.3007	21.0411	0.7593
83.3290	22.4658	0.7845
83.3573	21.9178	0.7749
83.3855	19.8630	0.7377
83.4138	21.6164	0.7696
83.4421	20.6027	0.7513
83.4703	18.8767	0.7191
83.4986	19.3151	0.7274
83.5269	20.0000	0.7402
83.5551	18.2703	0.7027
83.5834	18.6216	0.7094
83.6116	18.1351	0.7001
83.6399	16.9730	0.6773
83.6682	18.5135	0.7074
83.6964	19.1892	0.7202
83.7247	19.1892	0.7202
83.7530	17.5405	0.6885
83.7812	19.4054	0.7242
83.8095	18.2973	0.7032
83.8378	17.2432	0.6827
83.8660	17.0000	0.6778
83.8943	16.7568	0.6730
83.9226	17.7568	0.6928
83.9508	16.5405	0.6686
83.9791	17.8378	0.6943
84.0074	18.6486	0.7099
84.0356	16.5135	0.6681
84.0639	16.7568	0.6730
84.0922	17.6216	0.6901
84.1204	17.8649	0.6949
84.1487	16.5405	0.6686
84.1770	17.2973	0.6837
84.2052	16.9459	0.6768
84.2335	16.6486	0.6708
84.2618	18.1351	0.7001
84.2900	18.2703	0.7027
84.3183	16.6757	0.6713
84.3466	16.4865	0.6675
84.3748	16.8649	0.6751
84.4031	17.0811	0.6794
84.4313	16.2973	0.6637
84.4596	16.6400	0.6661
84.4879	16.7200	0.6677
84.5161	16.2667	0.6586
84.5444	17.3600	0.6804
84.5727	16.6133	0.6656
84.6009	16.5333	0.6640
84.6292	16.7200	0.6677
84.6575	17.8133	0.6892
84.6857	16.9867	0.6730
84.7140	16.6579	0.6621
84.7423	16.7895	0.6647
84.7705	16.2632	0.6542
84.7988	17.0000	0.6689
84.8271	18.3421	0.6948
84.8553	16.9737	0.6683
84.8836	16.2368	0.6537
84.9119	17.6316	0.6812
84.9401	17.6316	0.6812
84.9684	17.6316	0.6812
84.9967	17.7105	0.6827
85.0249	16.7895	0.6647
85.0532	18.2368	0.6928
85.0815	18.3947	0.6958
85.1097	18.5263	0.6982
85.1380	17.0789	0.6704
85.1663	17.6842	0.6822
85.1945	18.7368	0.7022
85.2228	18.7105	0.7017
85.2511	17.4211	0.6771
85.2793	18.5000	0.6977
85.3076	17.4211	0.6771
85.3358	19.9474	0.7245
85.3641	17.5263	0.6791
85.3924	19.1053	0.7091
85.4206	18.1842	0.6918
85.4489	18.4474	0.6967
85.4772	18.4737	0.6972
85.5054	17.9211	0.6867
85.5337	18.5000	0.6977
85.5620	19.2895	0.7125
85.5902	17.4737	0.6781
85.6185	19.0789	0.7086
85.6468	18.2895	0.6938
85.6750	19.0909	0.7042
85.7033	18.0519	0.6847
85.7316	18.3377	0.6901
85.7598	19.1429	0.7051
85.7881	20.6494	0.7324
85.8164	19.5065	0.7118
85.8446	19.7143	0.7156
85.8729	20.0779	0.7222
85.9012	19.5385	0.7078
85.9294	17.9744	0.6789
85.9577	18.6923	0.6923
85.9860	19.9487	0.7152
86.0142	20.6154	0.7270
86.0425	19.8205	0.7129
86.0708	19.0513	0.6989
86.0990	20.0000	0.7161
86.1273	19.9487	0.7152
86.1555	20.0769	0.7175
86.1838	17.3846	0.6677
86.2121	18.5128	0.6890
86.2403	18.8974	0.6961
86.2686	19.9231	0.7147
86.2969	18.7949	0.6942
86.3251	19.8974	0.7143
86.3534	19.1538	0.7008
86.3817	19.6667	0.7101
86.4099	17.7436	0.6745
86.4382	16.7692	0.6557
86.4665	18.6667	0.6918
86.4947	18.0256	0.6798
86.5230	17.1538	0.6632
86.5513	19.1282	0.7003
86.5795	17.4103	0.6681
86.6078	18.7179	0.6928
86.6361	19.0769	0.6994
86.6643	19.2051	0.7017
86.6926	17.1795	0.6637
86.7209	18.9744	0.6975
86.7491	18.9231	0.6966
86.7774	18.6154	0.6909
86.8057	18.8462	0.6952
86.8339	19.5897	0.7087
86.8622	20.8974	0.7320
86.8905	22.3291	0.7519
86.9187	23.3924	0.7696
86.9470	22.8608	0.7608
86.9752	24.5823	0.7889
87.0035	25.2911	0.8002
87.0318	24.9620	0.7950
87.0600	25.4000	0.7969
87.0883	23.2250	0.7620
87.1166	21.4250	0.7319
87.1448	20.3000	0.7124
87.1731	20.5000	0.7159
87.2014	18.1000	0.6727
87.2296	18.8000	0.6856
87.2579	19.0500	0.6901
87.2862	18.3000	0.6764
87.3144	19.3500	0.6955
87.3427	16.0000	0.6325
87.3710	16.5750	0.6437
87.3992	14.8500	0.6093
87.4275	14.5500	0.6031
87.4558	14.2000	0.5958
87.4840	12.3500	0.5557
87.5123	13.0750	0.5717
87.5406	13.2000	0.5745
87.5688	12.7750	0.5651
87.5971	11.7750	0.5426
87.6254	11.3000	0.5315
87.6536	11.5000	0.5362
87.6819	11.6000	0.5385
87.7102	11.1500	0.5280
87.7384	12.1000	0.5500
87.7667	12.2750	0.5540
87.7950	10.2750	0.5068
87.8232	11.1000	0.5268
87.8515	11.9250	0.5460
87.8797	11.6250	0.5391
87.9080	10.7750	0.5190
87.9363	11.4750	0.5356
87.9645	11.3750	0.5333
87.9928	11.6250	0.5391
88.0211	11.4500	0.5350
88.0493	12.0250	0.5483
88.0776	10.8500	0.5208
88.1059	11.8250	0.5437
88.1341	11.1852	0.5255
88.1624	11.4321	0.5313
88.1907	10.9630	0.5203
88.2189	11.0123	0.5214
88.2472	11.1220	0.5208
88.2755	10.5122	0.5064
88.3037	11.1707	0.5220
88.3320	10.9512	0.5168
88.3603	11.4390	0.5282
88.3885	10.1707	0.4981
88.4168	12.0488	0.5421
88.4451	11.1707	0.5220
88.4733	11.2439	0.5237
88.5016	9.5610	0.4829
88.5299	10.7317	0.5116
88.5581	11.9268	0.5393
88.5864	10.4390	0.5046
88.6147	10.4390	0.5046
88.6429	10.5366	0.5069
88.6712	11.3659	0.5265
88.6994	11.1220	0.5208
88.7277	11.1951	0.5225
88.7560	11.0976	0.5203
88.7842	11.2927	0.5248
88.8125	10.6341	0.5093
88.8408	10.1951	0.4987
88.8690	10.1463	0.4975
88.8973	10.7561	0.5122
88.9256	11.3171	0.5254
88.9538	9.9024	0.4914
88.9821	11.4878	0.5293
89.0104	11.8049	0.5366
89.0386	10.3171	0.5016
89.0669	11.0976	0.5203
89.0952	10.3659	0.5028
89.1234	11.8537	0.5377
89.1517	10.5854	0.5081
89.1800	10.5610	0.5075
89.2082	10.5122	0.5064
89.2365	11.1951	0.5225
89.2648	10.5610	0.5075
89.2930	10.6341	0.5093
89.3213	10.4390	0.5046
89.3496	10.3133	0.4985
89.3778	10.2410	0.4968
89.4061	11.2619	0.5178
89.4344	10.4762	0.4994
89.4626	10.0714	0.4897
89.4909	10.5952	0.5023
89.5192	11.0000	0.5118
89.5474	10.4524	0.4989
89.5757	10.5476	0.5011
89.6039	11.0000	0.5118
89.6322	11.4762	0.5227
89.6605	11.7857	0.5297
89.6887	10.7381	0.5056
89.7170	11.6667	0.5270
89.7453	11.4286	0.5216
89.7735	10.6667	0.5040
89.8018	10.5476	0.5011
89.8301	10.2619	0.4943
89.8583	10.1429	0.4914
89.8866	10.5476	0.5011
89.9149	9.7857	0.4827
89.9431	10.3810	0.4972
89.9714	11.5714	0.5249
89.9997	10.7381	0.5056
90.0279	10.0476	0.4891
90.0562	10.4048	0.4977
90.0845	10.2143	0.4932
90.1127	10.6190	0.5028
90.1410	10.8810	0.5090
90.1693	10.4762	0.4994
90.1975	11.3810	0.5206
90.2258	10.3571	0.4966
90.2541	10.6190	0.5028
90.2823	10.8571	0.5084
90.3106	10.9048	0.5095
90.3389	10.8571	0.5084
90.3671	10.5952	0.5023
90.3954	11.1429	0.5151
90.4236	11.2619	0.5178
90.4519	10.9524	0.5107
90.4802	9.3571	0.4720
90.5084	11.1905	0.5162
90.5367	11.2857	0.5184
90.5650	10.8095	0.5073
90.5932	10.8140	0.5015
90.6215	11.2791	0.5122
90.6498	9.6512	0.4738
90.6780	10.3953	0.4917
90.7063	10.6047	0.4966
90.7346	9.6744	0.4743
90.7628	10.7442	0.4999
90.7911	11.1163	0.5084
90.8194	10.5116	0.4944
90.8476	10.6744	0.4982
90.8759	10.6977	0.4988
90.9042	11.1628	0.5095
90.9324	11.6279	0.5200
90.9607	9.8837	0.4794
90.9890	10.6512	0.4977
91.0172	10.0465	0.4834
91.0455	9.9535	0.4811
91.0738	10.7907	0.5009
91.1020	10.8837	0.5031
91.1303	11.3488	0.5137
91.1586	10.7442	0.4999
91.1868	10.9302	0.5042
91.2151	10.7209	0.4993
91.2433	10.2093	0.4873
91.2716	10.1163	0.4850
91.2999	10.4419	0.4928
91.3281	10.3721	0.4911
91.3564	9.6512	0.4738
91.3847	10.7209	0.4993
91.4129	10.9535	0.5047
91.4412	11.6977	0.5216
91.4695	9.9070	0.4800
91.4977	11.3488	0.5137
91.5260	11.3488	0.5137
91.5543	10.4651	0.4933
91.5825	10.9535	0.5047
91.6108	11.1628	0.5095
91.6391	10.3023	0.4895
91.6673	10.2791	0.4889
91.6956	10.9302	0.5042
91.7239	10.6977	0.4988
91.7521	10.8046	0.4984
91.7804	11.1034	0.5052
91.8087	11.0682	0.5015
91.8369	11.0682	0.5015
91.8652	10.8636	0.4969
91.8935	10.6364	0.4917
91.9217	10.7955	0.4953
91.9500	10.7727	0.4948
91.9783	11.1136	0.5026
92.0065	10.7727	0.4948
92.0348	10.9091	0.4979
92.0631	10.4773	0.4880
92.0913	10.6136	0.4911
92.1196	10.4545	0.4874
92.1478	10.8864	0.4974
92.1761	11.1818	0.5041
92.2044	11.8409	0.5188
92.2326	10.7273	0.4938
92.2609	10.1818	0.4810
92.2892	10.8182	0.4959
92.3174	10.1591	0.4805
92.3457	10.4318	0.4869
92.3740	11.0682	0.5015
92.4022	11.5455	0.5122
92.4305	10.8409	0.4964
92.4588	11.0455	0.5010
92.4870	10.7727	0.4948
92.5153	10.9318	0.4984
92.5436	11.4091	0.5092
92.5718	10.8636	0.4969
92.6001	11.0455	0.5010
92.6284	10.3409	0.4848
92.6566	11.7727	0.5173
92.6849	11.6136	0.5138
92.7132	11.5000	0.5112
92.7414	10.7955	0.4953
92.7697	10.7955	0.4953
92.7980	11.2045	0.5046
92.8262	11.7273	0.5163
92.8545	10.1591	0.4805
92.8828	11.1591	0.5036
92.9110	11.2045	0.5046
92.9393	11.6854	0.5124
92.9675	11.4382	0.5070
92.9958	11.0112	0.4974
93.0241	10.6517	0.4892
93.0523	11.4889	0.5053
93.0806	11.1111	0.4969
93.1089	11.1111	0.4969
93.1371	10.7778	0.4894
93.1654	11.8000	0.5121
93.1937	11.3111	0.5014
93.2219	11.7778	0.5116
93.2502	11.3333	0.5018
93.2785	11.1111	0.4969
93.3067	10.6667	0.4869
93.3350	11.5333	0.5063
93.3633	11.4667	0.5048
93.3915	11.1333	0.4974
93.4198	11.4444	0.5043
93.4481	11.8222	0.5126
93.4763	11.0000	0.4944
93.5046	11.9556	0.5154
93.5329	11.7556	0.5111
93.5611	10.8667	0.4914
93.5894	11.8889	0.5140
93.6177	10.7111	0.4879
93.6459	10.6444	0.4864
93.6742	11.5778	0.5072
93.7025	11.5333	0.5063
93.7307	10.6222	0.4858
93.7590	11.9333	0.5150
93.7872	10.6667	0.4869
93.8155	12.4667	0.5263
93.8438	12.2222	0.5212
93.8720	11.0444	0.4954
93.9003	12.9778	0.5370
93.9286	12.4444	0.5259
93.9568	11.6222	0.5082
93.9851	11.4000	0.5033
94.0134	12.6444	0.5301
94.0416	11.8889	0.5140
94.0699	12.6444	0.5301
94.0982	12.3297	0.5206
94.1264	13.3187	0.5410
94.1547	12.7692	0.5298
94.1830	13.3187	0.5410
94.2112	11.6484	0.5060
94.2395	13.1868	0.5383
94.2678	13.3261	0.5382
94.2960	13.0435	0.5325
94.3243	13.0652	0.5329
94.3526	12.9348	0.5303
94.3808	13.6087	0.5439
94.4091	13.4783	0.5413
94.4374	14.0217	0.5521
94.4656	13.3913	0.5396
94.4939	14.2609	0.5568
94.5222	13.1304	0.5343
94.5504	13.8043	0.5478
94.5787	15.1957	0.5748
94.6070	14.6087	0.5635
94.6352	14.6304	0.5640
94.6635	14.5000	0.5614
94.6917	14.5000	0.5614
94.7200	15.7391	0.5849
94.7483	15.9130	0.5882
94.7765	16.7391	0.6032
94.8048	16.1087	0.5918
94.8331	16.8043	0.6044
94.8613	17.8043	0.6221
94.8896	17.4565	0.6160
94.9179	18.2826	0.6304
94.9461	18.8478	0.6401
94.9744	19.2609	0.6471
95.0027	19.6304	0.6533
95.0309	21.5435	0.6844
95.0592	22.0435	0.6922
95.0875	21.5000	0.6837
95.1157	23.0000	0.7071
95.1440	24.0435	0.7230
95.1723	22.8913	0.7054
95.2005	23.9130	0.7210
95.2288	24.1087	0.7239
95.2571	24.8043	0.7343
95.2853	23.5054	0.7110
95.3136	24.2366	0.7220
95.3419	26.9247	0.7609
95.3701	25.8495	0.7456
95.3984	24.3011	0.7229
95.4267	25.9140	0.7465
95.4549	24.7097	0.7290
95.4832	24.9677	0.7328
95.5114	26.9574	0.7573
95.5397	24.9787	0.7290
95.5680	25.6170	0.7383
95.5962	26.0213	0.7441
95.6245	24.5532	0.7228
95.6528	24.3404	0.7196
95.6810	24.4255	0.7209
95.7093	24.1489	0.7168
95.7376	23.7872	0.7114
95.7658	24.8723	0.7275
95.7941	23.8936	0.7130
95.8224	24.6383	0.7240
95.8506	23.8723	0.7127
95.8789	22.8723	0.6976
95.9072	23.7872	0.7114
95.9354	23.2340	0.7031
95.9637	22.3617	0.6898
95.9920	23.6383	0.7092
96.0202	23.9362	0.7136
96.0485	22.5106	0.6921
96.0768	21.2553	0.6725
96.1050	22.5319	0.6924
96.1333	20.8085	0.6654
96.1616	21.0000	0.6684
96.1898	20.7447	0.6644
96.2181	22.5957	0.6934
96.2464	21.2766	0.6728
96.2746	21.0638	0.6695
96.3029	20.1277	0.6544
96.3312	21.0851	0.6698
96.3594	19.6596	0.6468
96.3877	20.1489	0.6548
96.4159	19.4681	0.6436
96.4442	19.1789	0.6354
96.4725	20.2105	0.6523
96.5007	19.6000	0.6424
96.5290	19.7053	0.6441
96.5573	19.3684	0.6386
96.5855	19.5158	0.6410
96.6138	20.3579	0.6547
96.6421	19.4737	0.6403
96.6703	19.1579	0.6351
96.6986	19.7263	0.6444
96.7269	20.1042	0.6472
96.7551	19.6250	0.6394
96.7834	20.2292	0.6492
96.8117	17.9583	0.6117
96.8399	20.3333	0.6509
96.8682	19.5833	0.6387
96.8965	19.3125	0.6343
96.9247	19.8750	0.6435
96.9530	20.4792	0.6532
96.9813	18.2708	0.6170
97.0095	19.0833	0.6305
97.0378	19.2917	0.6340
97.0661	19.9792	0.6452
97.0943	18.5833	0.6222
97.1226	18.9583	0.6285
97.1509	18.8125	0.6260
97.1791	20.3542	0.6512
97.2074	18.1042	0.6141
97.2356	20.8958	0.6598
97.2639	20.1042	0.6472
97.2922	18.4583	0.6201
97.3204	20.1042	0.6472
97.3487	18.5625	0.6219
97.3770	18.5625	0.6219
97.4052	18.3958	0.6191
97.4335	19.2292	0.6329
97.4618	20.1250	0.6475
97.4900	20.0208	0.6458
97.5183	19.2708	0.6336
97.5466	19.6042	0.6391
97.5748	19.1875	0.6322
97.6031	19.4845	0.6338
97.6314	19.8351	0.6395
97.6596	19.6701	0.6368
97.6879	20.4124	0.6487
97.7162	19.0103	0.6261
97.7444	19.1959	0.6291
97.7727	19.8557	0.6398
97.8010	20.4536	0.6494
97.8292	18.9691	0.6254
97.8575	20.2062	0.6455
97.8858	18.7629	0.6220
97.9140	19.5052	0.6342
97.9423	20.2887	0.6468
97.9706	20.1429	0.6412
97.9988	21.4286	0.6613
98.0271	20.1020	0.6405
98.0553	20.1429	0.6412
98.0836	20.4286	0.6457
98.1119	19.8571	0.6366
98.1401	20.4694	0.6463
98.1684	20.8163	0.6518
98.1967	21.2245	0.6581
98.2249	20.7347	0.6505
98.2532	21.2245	0.6581
98.2815	20.6327	0.6489
98.3097	21.2857	0.6591
98.3380	21.7755	0.6666
98.3663	21.6531	0.6648
98.3945	21.2449	0.6585
98.4228	20.5510	0.6476
98.4511	20.5306	0.6473
98.4793	21.0000	0.6547
98.5076	21.4694	0.6619
98.5359	21.1224	0.6566
98.5641	20.6122	0.6486
98.5924	21.2653	0.6588
98.6207	22.3265	0.6750
98.6489	21.1837	0.6575
98.6772	21.2857	0.6591
98.7055	22.2653	0.6741
98.7337	21.8163	0.6673
98.7620	22.2857	0.6744
98.7903	21.5306	0.6629
98.8185	21.6122	0.6641
98.8468	22.8776	0.6833
98.8751	23.1837	0.6878
98.9033	21.5918	0.6638
98.9316	23.2857	0.6894
98.9598	23.0408	0.6857
98.9881	23.4694	0.6921
99.0164	22.8283	0.6791
99.0446	23.4545	0.6884
99.0729	22.8081	0.6788
99.1012	24.0000	0.6963
99.1294	24.1818	0.6989
99.1577	23.1313	0.6836
99.1860	23.5800	0.6867
99.2142	22.4400	0.6699
99.2425	24.2200	0.6960
99.2708	23.3600	0.6835
99.2990	23.9000	0.6914
99.3273	23.9000	0.6914
99.3556	23.2400	0.6818
99.3838	22.7200	0.6741
99.4121	22.1400	0.6654
99.4404	23.7600	0.6893
99.4686	24.1200	0.6946
99.4969	24.3600	0.6980
99.5252	23.4400	0.6847
99.5534	25.1600	0.7094
99.5817	24.6800	0.7026
99.6100	23.4600	0.6850
99.6382	23.6200	0.6873
99.6665	23.5800	0.6867
99.6948	23.5200	0.6859
99.7230	24.4000	0.6986
99.7513	23.1800	0.6809
99.7795	24.0200	0.6931
99.8078	22.0000	0.6633
99.8361	22.3600	0.6687
99.8643	23.2200	0.6815
99.8926	23.0600	0.6791
99.9209	22.7800	0.6750
99.9491	23.9400	0.6920
99.9774	22.1800	0.6660
100.0057	22.3800	0.6690
100.0339	22.9000	0.6768
100.0622	22.9400	0.6773
100.0905	21.2800	0.6524
100.1187	21.5400	0.6564
100.1470	21.4000	0.6542
100.1753	21.0000	0.6481
100.2035	21.9000	0.6618
100.2318	23.2000	0.6812
100.2601	22.4400	0.6699
100.2883	22.7800	0.6750
100.3166	22.4800	0.6705
100.3449	24.1600	0.6951
100.3731	24.7000	0.7029
100.4014	23.4653	0.6817
100.4297	25.9608	0.7135
100.4579	25.6471	0.7091
100.4862	26.2745	0.7178
100.5145	28.0000	0.7410
100.5427	28.9608	0.7536
100.5710	30.1765	0.7692
100.5993	31.0196	0.7799
100.6275	31.4314	0.7850
100.6558	32.4902	0.7982
100.6840	30.7255	0.7762
100.7123	28.9804	0.7538
100.7406	26.1961	0.7167
100.7688	25.4706	0.7067
100.7971	25.2549	0.7037
100.8254	23.8235	0.6835
100.8536	23.2549	0.6753
100.8819	23.7255	0.6821
100.9102	24.3922	0.6916
100.9384	22.7647	0.6681
100.9667	23.0784	0.6727
100.9950	21.5490	0.6500
101.0232	22.3529	0.6620
101.0515	20.1373	0.6284
101.0798	18.6863	0.6053
101.1080	18.9216	0.6091
101.1363	17.4510	0.5850
101.1646	15.7843	0.5563
101.1928	14.4118	0.5316
101.2211	15.4510	0.5504
101.2494	14.7451	0.5377
101.2776	14.1569	0.5269
101.3059	15.4510	0.5504
101.3342	13.9608	0.5232
101.3624	13.7451	0.5191
101.3907	12.8824	0.5026
101.4190	13.3529	0.5117
101.4472	13.1176	0.5072
101.4755	13.2941	0.5106
101.5037	13.1765	0.5083
101.5320	12.3922	0.4929
101.5603	12.9608	0.5041
101.5885	13.5686	0.5158
101.6168	12.5882	0.4968
101.6451	12.8824	0.5026
101.6733	13.1569	0.5079
101.7016	12.2745	0.4906
101.7299	11.6078	0.4771
101.7581	12.2941	0.4910
101.7864	12.1765	0.4886
101.8147	12.0000	0.4851
101.8429	12.6796	0.4962
101.8712	12.9038	0.4981
101.8995	11.8269	0.4769
101.9277	12.0000	0.4804
101.9560	12.1154	0.4827
101.9843	11.9231	0.4788
102.0125	12.3269	0.4869
102.0408	12.1154	0.4827
102.0691	11.8654	0.4777
102.0973	11.5192	0.4707
102.1256	10.8077	0.4559
102.1539	11.8846	0.4781
102.1821	11.5000	0.4703
102.2104	11.5577	0.4714
102.2387	11.6923	0.4742
102.2669	12.2692	0.4857
102.2952	12.2500	0.4854
102.3234	11.8269	0.4769
102.3517	11.7692	0.4757
102.3800	11.5192	0.4707
102.4082	11.5385	0.4711
102.4365	11.2885	0.4659
102.4648	11.8654	0.4777
102.4930	12.0385	0.4812
102.5213	11.6538	0.4734
102.5496	11.5577	0.4714
102.5778	10.9615	0.4591
102.6061	10.8654	0.4571
102.6344	11.0577	0.4611
102.6626	10.8654	0.4571
102.6909	11.5192	0.4707
102.7192	11.8462	0.4773
102.7474	11.7115	0.4746
102.7757	12.3846	0.4880
102.8040	12.0577	0.4815
102.8322	11.5385	0.4711
102.8605	11.7692	0.4757
102.8888	11.1923	0.4639
102.9170	11.8269	0.4769
102.9453	11.0769	0.4615
102.9736	11.5000	0.4703
103.0018	12.3462	0.4873
103.0301	11.8846	0.4781
103.0584	11.2692	0.4655
103.0866	11.8846	0.4781
103.1149	11.3654	0.4675
103.1432	11.9615	0.4796
103.1714	11.8269	0.4769
103.1997	11.8846	0.4781
103.2279	11.6923	0.4742
103.2562	10.9143	0.4560
103.2845	11.5810	0.4697
103.3127	11.7905	0.4739
103.3410	10.9623	0.4548
103.3693	11.0189	0.4560
103.3975	11.6604	0.4690
103.4258	11.8491	0.4728
103.4541	11.0000	0.4556
103.4823	11.4717	0.4652
103.5106	11.8868	0.4736
103.5389	11.7358	0.4706
103.5671	11.7736	0.4713
103.5954	11.5094	0.4660
103.6237	11.2075	0.4599
103.6519	11.3774	0.4633
103.6802	10.8491	0.4524
103.7085	11.0000	0.4556
103.7367	11.8113	0.4721
103.7650	11.5660	0.4671
103.7933	12.1509	0.4788
103.8215	11.4528	0.4649
103.8498	11.8868	0.4736
103.8781	11.5660	0.4671
103.9063	11.3585	0.4629
103.9346	11.7547	0.4709
103.9629	11.8113	0.4721
103.9911	11.0566	0.4567
104.0194	11.5660	0.4671
104.0476	11.3585	0.4629
104.0759	11.2830	0.4614
104.1042	11.3962	0.4637
104.1324	11.4340	0.4645
104.1607	10.2453	0.4397
104.1890	11.3019	0.4618
104.2172	11.4340	0.4645
104.2455	11.4906	0.4656
104.2738	11.9623	0.4751
104.3020	11.1132	0.4579
104.3303	11.2264	0.4602
104.3586	12.8491	0.4924
104.3868	12.3962	0.4836
104.4151	11.8679	0.4732
104.4434	11.3396	0.4626
104.4716	11.7925	0.4717
104.4999	11.6415	0.4687
104.5282	11.6415	0.4687
104.5564	12.0377	0.4766
104.5847	11.4340	0.4645
104.6130	11.7170	0.4702
104.6412	10.8868	0.4532
104.6695	10.8037	0.4494
104.6978	11.4953	0.4635
104.7260	11.1028	0.4556
104.7543	10.9720	0.4529
104.7826	10.8037	0.4494
104.8108	12.0926	0.4732
104.8391	11.9074	0.4696
104.8674	10.6852	0.4448
104.8956	11.5370	0.4622
104.9239	12.1481	0.4743
104.9521	11.2037	0.4555
104.9804	11.5000	0.4615
105.0087	11.3889	0.4592
105.0369	11.8704	0.4689
105.0652	12.1111	0.4736
105.0935	11.4630	0.4607
105.1217	12.2037	0.4754
105.1500	11.4444	0.4604
105.1783	10.7963	0.4471
105.2065	12.0370	0.4721
105.2348	11.0926	0.4532
105.2631	11.6111	0.4637
105.2913	12.4074	0.4793
105.3196	11.8148	0.4678
105.3479	11.3148	0.4577
105.3761	11.0926	0.4532
105.4044	11.4815	0.4611
105.4327	10.9074	0.4494
105.4609	11.8148	0.4678
105.4892	10.9259	0.4498
105.5175	11.2778	0.4570
105.5457	11.4815	0.4611
105.5740	11.1481	0.4544
105.6023	11.7963	0.4674
105.6305	11.6296	0.4641
105.6588	11.8148	0.4678
105.6871	11.0741	0.4529
105.7153	11.5741	0.4630
105.7436	11.4074	0.4596
105.7718	11.2963	0.4574
105.8001	11.6667	0.4648
105.8284	11.1481	0.4544
105.8566	11.3704	0.4589
105.8849	11.9074	0.4696
105.9132	11.3519	0.4585
105.9414	11.9259	0.4699
105.9697	12.4630	0.4804
105.9980	12.8333	0.4875
106.0262	12.0185	0.4718
106.0545	11.7222	0.4659
106.0828	11.3761	0.4569
106.1110	11.7798	0.4649
106.1393	12.8991	0.4865
106.1676	11.2661	0.4547
106.1958	11.9817	0.4689
106.2241	11.0459	0.4502
106.2524	12.2569	0.4742
106.2806	11.3636	0.4545
106.3089	11.7091	0.4614
106.3372	11.4545	0.4564
106.3654	12.0909	0.4689
106.3937	11.4182	0.4556
106.4220	11.0909	0.4491
106.4502	11.1636	0.4505
106.4785	12.0909	0.4689
106.5068	11.0000	0.4472
106.5350	11.2182	0.4516
106.5633	11.5455	0.4582
106.5915	11.3091	0.4535
106.6198	11.3818	0.4549
106.6481	11.7636	0.4625
106.6763	11.7636	0.4625
106.7046	12.1091	0.4692
106.7329	12.2000	0.4710
106.7611	11.6727	0.4607
106.7894	11.4182	0.4556
106.8177	11.6000	0.4592
106.8459	11.8000	0.4632
106.8742	11.8000	0.4632
106.9025	11.7455	0.4621
106.9307	11.6727	0.4607
106.9590	12.6545	0.4797
106.9873	11.0182	0.4476
107.0155	12.0364	0.4678
107.0438	10.9273	0.4457
107.0721	12.0364	0.4678
107.1003	11.9273	0.4657
107.1286	12.1818	0.4706
107.1569	12.0000	0.4671
107.1851	12.0545	0.4682
107.2134	11.3091	0.4535
107.2417	11.9091	0.4653
107.2699	11.4909	0.4571
107.2982	12.2909	0.4727
107.3265	12.8364	0.4831
107.3547	12.3091	0.4731
107.3830	11.8000	0.4632
107.4113	11.2545	0.4524
107.4395	11.8727	0.4646
107.4678	11.6000	0.4592
107.4960	12.3243	0.4712
107.5243	12.8288	0.4808
107.5526	12.3243	0.4712
107.5808	13.3333	0.4901
107.6091	13.1351	0.4865
107.6374	13.6937	0.4967
107.6656	13.7838	0.4984
107.6939	12.7027	0.4784
107.7222	12.9009	0.4821
107.7504	13.4821	0.4907
107.7787	13.1250	0.4841
107.8070	11.8393	0.4598
107.8352	13.6964	0.4945
107.8635	13.4286	0.4897
107.8918	14.5536	0.5098
107.9200	14.4643	0.5082
107.9483	14.7143	0.5126
107.9766	15.6071	0.5279
108.0048	13.9107	0.4984
108.0331	14.4821	0.5085
108.0614	14.1964	0.5035
108.0896	14.4464	0.5079
108.1179	14.6429	0.5114
108.1462	15.1071	0.5194
108.1744	14.7500	0.5132
108.2027	15.5357	0.5267
108.2310	15.1607	0.5203
108.2592	14.6964	0.5123
108.2875	16.4821	0.5425
108.3157	15.8750	0.5324
108.3440	15.6250	0.5282
108.3723	16.3036	0.5396
108.4005	16.0357	0.5351
108.4288	15.2143	0.5212
108.4571	14.8929	0.5157
108.4853	14.9643	0.5169
108.5136	15.1607	0.5203
108.5419	14.5357	0.5095
108.5701	15.0714	0.5188
108.5984	15.7321	0.5300
108.6267	15.1607	0.5203
108.6549	14.9286	0.5163
108.6832	14.2500	0.5044
108.7115	15.4054	0.5269
108.7397	15.1636	0.5251
108.7680	15.7431	0.5375
108.7963	14.2222	0.5132
108.8245	15.1028	0.5313
108.8528	13.6415	0.5073
108.8811	14.7810	0.5306
108.9093	14.7115	0.5319
108.9376	14.4660	0.5300
108.9659	14.8627	0.5398
108.9941	14.3762	0.5336
109.0224	14.0400	0.5299
109.0507	14.7677	0.5462
109.0789	15.2245	0.5574
109.1072	15.2990	0.5616
109.1355	14.3333	0.5465
109.1637	13.7263	0.5376
109.1920	13.9362	0.5445
109.2202	14.2128	0.5499
109.2485	14.4086	0.5567
109.2768	13.4565	0.5409
109.3050	14.5055	0.5646
109.3333	14.4000	0.5657
109.3616	14.2697	0.5663
109.3898	13.6136	0.5562
109.4181	13.3563	0.5541
109.4464	13.0930	0.5518
109.4746	12.9412	0.5518
109.5029	13.7381	0.5719
109.5312	13.7108	0.5748
109.5594	14.1220	0.5869
109.5877	13.6049	0.5796
109.6160	13.8750	0.5890
109.6442	13.1646	0.5773
109.6725	12.7436	0.5716
109.7008	13.6104	0.5946
109.7290	13.2368	0.5902
109.7573	13.7867	0.6063
109.7856	13.5135	0.6043
109.8138	13.1507	0.6002
109.8421	13.3611	0.6092
109.8704	13.8873	0.6255
109.8986	13.6000	0.6234
109.9269	13.9420	0.6357
109.9552	13.1765	0.6225
109.9834	12.8657	0.6197
