1.544427
20.0140	53.5068	0.8561
20.0421	54.9589	0.8677
20.0701	56.1216	0.8709
20.0982	54.9459	0.8617
20.1262	55.3733	0.8593
20.1543	54.6533	0.8536
20.1823	54.9079	0.8500
20.2104	54.1842	0.8444
20.2384	55.1688	0.8465
20.2665	53.6364	0.8346
20.2945	53.1667	0.8256
20.3226	53.9744	0.8319
20.3506	54.2785	0.8289
20.3787	52.9873	0.8190
20.4067	54.5125	0.8255
20.4348	53.1250	0.8149
20.4628	53.4815	0.8126
20.4908	52.8025	0.8074
20.5189	53.1463	0.8051
20.5469	53.3171	0.8064
20.5750	52.4096	0.7946
20.6030	53.7470	0.8047
20.6311	52.4762	0.7904
20.6591	52.9286	0.7938
20.6872	53.1882	0.7910
20.7152	53.3765	0.7924
20.7433	54.0465	0.7927
20.7713	51.8721	0.7766
20.7994	52.7586	0.7787
20.8274	53.3218	0.7829
20.8555	53.9886	0.7833
20.8835	53.7614	0.7816
20.9116	53.0562	0.7721
20.9396	53.1348	0.7727
20.9677	53.2222	0.7690
20.9957	53.3333	0.7698
21.0238	53.1538	0.7643
21.0518	52.6484	0.7606
21.0799	53.5652	0.7630
21.1079	52.9022	0.7583
21.1360	53.1183	0.7558
21.1640	51.8710	0.7468
21.1921	53.4362	0.7540
21.2201	51.8723	0.7429
21.2482	52.2632	0.7417
21.2762	51.6316	0.7372
21.3043	51.5104	0.7325
21.3323	52.4688	0.7393
21.3604	50.0825	0.7186
21.3884	52.5258	0.7359
21.4165	52.9184	0.7348
21.4445	50.3367	0.7167
21.4725	51.2929	0.7198
21.5006	51.5859	0.7219
21.5286	50.4500	0.7103
21.5567	51.2500	0.7159
21.5847	51.3465	0.7130
21.6128	51.7921	0.7161
21.6408	52.0098	0.7141
21.6689	51.2549	0.7089
21.6969	52.2039	0.7119
21.7250	51.8835	0.7097
21.7530	51.5962	0.7044
21.7811	51.2596	0.7021
21.8091	51.3238	0.6991
21.8372	51.4190	0.6998
21.8652	51.1321	0.6945
21.8933	53.0283	0.7073
21.9213	50.5234	0.6872
21.9494	51.3178	0.6925
21.9774	50.8796	0.6864
22.0055	49.8519	0.6794
22.0335	50.8899	0.6833
22.0616	49.5413	0.6742
22.0896	51.0727	0.6814
22.1177	51.3636	0.6833
22.1457	49.8919	0.6704
22.1738	50.4144	0.6739
22.2018	49.7589	0.6665
22.2299	49.5000	0.6648
22.2579	50.0265	0.6654
22.2860	49.3186	0.6606
22.3140	50.2193	0.6637
22.3421	50.3596	0.6646
22.3701	49.8609	0.6585
22.3981	49.6087	0.6568
22.4262	49.2759	0.6518
22.4542	49.3103	0.6520
22.4823	49.0684	0.6476
22.5103	49.8803	0.6529
22.5384	49.5847	0.6482
22.5664	49.6186	0.6485
22.5945	50.2605	0.6499
22.6225	48.5126	0.6385
22.6506	48.4083	0.6351
22.6786	49.1500	0.6400
22.7067	49.5207	0.6397
22.7347	48.5372	0.6334
22.7628	48.0082	0.6273
22.7908	49.1148	0.6345
22.8189	48.8130	0.6300
22.8469	47.9431	0.6243
22.8750	47.6855	0.6201
22.9030	47.7258	0.6204
22.9311	47.5280	0.6166
22.9591	48.1680	0.6208
22.9872	47.6825	0.6152
23.0152	48.9048	0.6230
23.0433	48.5512	0.6183
23.0713	49.0787	0.6216
23.0994	47.8125	0.6112
23.1274	47.9609	0.6121
23.1555	48.0000	0.6100
23.1835	47.6744	0.6079
23.2116	47.1385	0.6022
23.2396	48.1000	0.6083
23.2677	48.5725	0.6089
23.2957	47.3130	0.6010
23.3238	47.4394	0.5995
23.3518	48.0682	0.6035
23.3798	48.0000	0.6008
23.4079	45.8421	0.5871
23.4359	47.7985	0.5972
23.4640	47.3060	0.5942
23.4920	47.0741	0.5905
23.5201	45.5704	0.5810
23.5481	46.5882	0.5853
23.5762	47.0441	0.5881
23.6042	46.1971	0.5807
23.6323	46.7883	0.5844
23.6603	45.6522	0.5752
23.6884	47.0870	0.5841
23.7164	46.6187	0.5791
23.7445	47.3813	0.5838
23.7725	46.9857	0.5793
23.8006	45.7214	0.5715
23.8286	45.4610	0.5678
23.8567	45.8865	0.5705
23.8847	45.6408	0.5669
23.9128	46.2465	0.5707
23.9408	46.4895	0.5702
23.9689	45.8671	0.5663
23.9969	47.5694	0.5748
24.0250	45.9514	0.5649
24.0530	46.5208	0.5684
24.0811	46.1389	0.5660
24.1091	44.8403	0.5580
24.1372	46.5694	0.5687
24.1652	46.2222	0.5666
24.1933	45.5000	0.5621
24.2213	45.8472	0.5643
24.2494	46.7361	0.5697
24.2774	45.2847	0.5608
24.3055	45.6806	0.5632
24.3335	45.9375	0.5648
24.3615	46.6458	0.5691
24.3896	44.8056	0.5578
24.4176	46.1458	0.5661
24.4457	45.6875	0.5633
24.4737	45.8889	0.5645
24.5018	45.5972	0.5627
24.5298	45.5972	0.5627
24.5579	46.2292	0.5666
24.5859	45.7500	0.5637
24.6140	45.2222	0.5604
24.6420	45.4306	0.5617
24.6701	46.2500	0.5667
24.6981	45.7500	0.5637
24.7262	46.6875	0.5694
24.7542	45.6597	0.5631
24.7823	45.2083	0.5603
24.8103	45.9653	0.5650
24.8384	47.0764	0.5718
24.8664	45.5833	0.5626
24.8945	45.2708	0.5607
24.9225	44.7292	0.5573
24.9506	45.3958	0.5615
24.9786	45.1389	0.5599
25.0067	45.8681	0.5644
25.0347	46.1111	0.5659
25.0628	47.8333	0.5763
25.0908	45.0833	0.5595
25.1189	45.7917	0.5639
25.1469	45.3542	0.5612
25.1750	45.4861	0.5620
25.2030	46.0694	0.5656
25.2311	45.6875	0.5633
25.2591	45.9306	0.5648
25.2871	45.9931	0.5652
25.3152	46.3403	0.5673
25.3432	44.2569	0.5544
25.3713	45.1528	0.5600
25.3993	46.1181	0.5659
25.4274	45.2986	0.5609
25.4554	44.8889	0.5583
25.4835	44.5903	0.5565
25.5115	45.5903	0.5627
25.5396	45.8333	0.5642
25.5676	45.2917	0.5608
25.5957	46.2222	0.5666
25.6237	45.3542	0.5612
25.6518	45.2431	0.5605
25.6798	45.4792	0.5620
25.7079	44.8611	0.5582
25.7359	44.8889	0.5583
25.7640	45.1736	0.5601
25.7920	44.9653	0.5588
25.8201	45.8125	0.5640
25.8481	45.0556	0.5594
25.8762	45.7083	0.5634
25.9042	45.9653	0.5650
25.9323	44.5000	0.5559
25.9603	45.1042	0.5597
25.9884	45.4375	0.5617
26.0164	45.4028	0.5615
26.0445	45.9236	0.5647
26.0725	45.6875	0.5633
26.1006	45.8194	0.5641
26.1286	45.9722	0.5650
26.1567	44.6944	0.5571
26.1847	45.3125	0.5610
26.2128	44.8958	0.5584
26.2408	46.3194	0.5672
26.2688	46.0486	0.5655
26.2969	45.7361	0.5636
26.3249	45.5278	0.5623
26.3530	45.7431	0.5636
26.3810	45.5764	0.5626
26.4091	44.6042	0.5566
26.4371	44.8125	0.5579
26.4652	44.7292	0.5573
26.4932	45.0694	0.5594
26.5213	45.9444	0.5649
26.5493	45.8611	0.5643
26.5774	45.4306	0.5617
26.6054	44.6806	0.5570
26.6335	44.8472	0.5581
26.6615	46.1528	0.5661
26.6896	44.8403	0.5580
26.7176	44.3333	0.5549
26.7457	44.8958	0.5584
26.7737	45.4792	0.5620
26.8018	44.7292	0.5573
26.8298	44.4861	0.5558
26.8579	44.7014	0.5572
26.8859	44.2500	0.5543
26.9140	45.8681	0.5644
26.9420	45.4861	0.5620
26.9701	44.9514	0.5587
26.9981	45.7361	0.5636
27.0262	45.0903	0.5596
27.0542	45.8611	0.5643
27.0823	44.7986	0.5578
27.1103	45.7986	0.5640
27.1384	45.3056	0.5609
27.1664	45.2014	0.5603
27.1944	44.0486	0.5531
27.2225	45.4028	0.5615
27.2505	45.1944	0.5602
27.2786	44.8681	0.5582
27.3066	45.6528	0.5631
27.3347	44.4444	0.5556
27.3627	43.9375	0.5524
27.3908	44.8333	0.5580
27.4188	44.5625	0.5563
27.4469	44.7986	0.5578
27.4749	44.8819	0.5583
27.5030	44.2014	0.5540
27.5310	45.2986	0.5609
27.5591	44.8819	0.5583
27.5871	45.5139	0.5622
27.6152	44.2986	0.5546
27.6432	45.3264	0.5610
27.6713	44.3819	0.5552
27.6993	44.9028	0.5584
27.7274	44.0486	0.5531
27.7554	45.0486	0.5593
27.7835	43.8958	0.5521
27.8115	45.7083	0.5634
27.8396	45.3819	0.5614
27.8676	44.6458	0.5568
27.8957	44.1319	0.5536
27.9237	44.5764	0.5564
27.9518	42.6944	0.5445
27.9798	45.0556	0.5594
28.0079	44.9583	0.5588
28.0359	43.2917	0.5483
28.0640	44.7431	0.5574
28.0920	44.8056	0.5578
28.1201	44.0833	0.5533
28.1481	44.7222	0.5573
28.1761	44.7639	0.5575
28.2042	44.8333	0.5580
28.2322	44.6944	0.5571
28.2603	44.8958	0.5584
28.2883	44.0764	0.5533
28.3164	44.9931	0.5590
28.3444	44.8889	0.5583
28.3725	44.2639	0.5544
28.4005	44.8611	0.5582
28.4286	44.7639	0.5575
28.4566	44.4931	0.5559
28.4847	44.9028	0.5584
28.5127	43.5486	0.5499
28.5408	43.5278	0.5498
28.5688	44.3819	0.5552
28.5969	44.3958	0.5553
28.6249	43.5417	0.5499
28.6530	43.8333	0.5517
28.6810	44.0069	0.5528
28.7091	43.5625	0.5500
28.7371	43.9097	0.5522
28.7652	45.0069	0.5591
28.7932	44.6458	0.5568
28.8213	44.2014	0.5540
28.8493	44.9444	0.5587
28.8774	44.5278	0.5561
28.9054	44.5694	0.5563
28.9335	44.3958	0.5553
28.9615	44.4722	0.5557
28.9896	45.0556	0.5594
29.0176	44.4375	0.5555
29.0457	44.1458	0.5537
29.0737	43.7500	0.5512
29.1017	43.9861	0.5527
29.1298	44.9097	0.5585
29.1578	44.5625	0.5563
29.1859	45.0694	0.5594
29.2139	44.4931	0.5559
29.2420	44.0625	0.5532
29.2700	44.3264	0.5548
29.2981	44.1944	0.5540
29.3261	44.4514	0.5556
29.3542	42.9306	0.5460
29.3822	43.4931	0.5496
29.4103	43.9514	0.5525
29.4383	44.6181	0.5566
29.4664	44.0903	0.5533
29.4944	44.4722	0.5557
29.5225	45.3264	0.5610
29.5505	44.4722	0.5557
29.5786	43.7431	0.5512
29.6066	43.9028	0.5522
29.6347	44.0208	0.5529
29.6627	43.5139	0.5497
29.6908	43.2222	0.5479
29.7188	43.7083	0.5509
29.7469	44.0208	0.5529
29.7749	45.1042	0.5597
29.8030	43.9306	0.5523
29.8310	44.0278	0.5529
29.8591	43.9583	0.5525
29.8871	44.7014	0.5572
29.9152	44.4028	0.5553
29.9432	44.5556	0.5562
29.9713	44.1181	0.5535
29.9993	43.5833	0.5501
30.0274	43.9583	0.5525
30.0554	44.0903	0.5533
30.0834	43.9931	0.5527
30.1115	43.0208	0.5466
30.1395	42.9444	0.5461
30.1676	43.4236	0.5491
30.1956	43.3333	0.5486
30.2237	44.5972	0.5565
30.2517	43.5694	0.5501
30.2798	43.1944	0.5477
30.3078	42.8889	0.5457
30.3359	43.9653	0.5526
30.3639	43.6389	0.5505
30.3920	44.0069	0.5528
30.4200	43.6250	0.5504
30.4481	43.7986	0.5515
30.4761	42.9653	0.5462
30.5042	44.3333	0.5549
30.5322	43.7431	0.5512
30.5603	43.9375	0.5524
30.5883	43.5347	0.5498
30.6164	45.0208	0.5591
30.6444	43.4306	0.5492
30.6725	43.8194	0.5516
30.7005	43.9097	0.5522
30.7286	44.0069	0.5528
30.7566	43.1875	0.5476
30.7847	43.4792	0.5495
30.8127	43.0000	0.5465
30.8408	43.4097	0.5491
30.8688	43.4792	0.5495
30.8969	42.7639	0.5450
30.9249	43.1042	0.5471
30.9530	42.8611	0.5456
30.9810	43.8958	0.5521
31.0090	43.5069	0.5497
31.0371	44.1736	0.5539
31.0651	42.8403	0.5454
31.0932	43.1389	0.5473
31.1212	43.6250	0.5504
31.1493	43.9792	0.5526
31.1773	43.5903	0.5502
31.2054	43.9792	0.5526
31.2334	44.3264	0.5548
31.2615	43.8264	0.5517
31.2895	43.7778	0.5514
31.3176	43.1875	0.5476
31.3456	44.1944	0.5540
31.3737	43.1319	0.5473
31.4017	42.8056	0.5452
31.4298	42.8403	0.5454
31.4578	43.1181	0.5472
31.4859	42.9583	0.5462
31.5139	42.5417	0.5435
31.5420	42.5764	0.5438
31.5700	43.4514	0.5493
31.5981	41.8611	0.5392
31.6261	43.1528	0.5474
31.6542	43.0069	0.5465
31.6822	42.4931	0.5432
31.7103	42.2986	0.5420
31.7383	43.3750	0.5488
31.7664	43.6042	0.5503
31.7944	42.8056	0.5452
31.8225	43.3333	0.5486
31.8505	42.4931	0.5432
31.8786	43.4097	0.5491
31.9066	42.7917	0.5451
31.9347	43.0208	0.5466
31.9627	42.4861	0.5432
31.9907	42.6181	0.5440
32.0188	42.5208	0.5434
32.0468	43.1458	0.5474
32.0749	43.6944	0.5508
32.1029	43.2847	0.5483
32.1310	43.4931	0.5496
32.1590	43.0208	0.5466
32.1871	43.6250	0.5504
32.2151	42.5833	0.5438
32.2432	42.0556	0.5404
32.2712	43.3056	0.5484
32.2993	43.3403	0.5486
32.3273	42.7431	0.5448
32.3554	41.6250	0.5376
32.3834	42.8681	0.5456
32.4115	42.6181	0.5440
32.4395	42.1458	0.5410
32.4676	42.9375	0.5461
32.4956	42.4236	0.5428
32.5237	41.7431	0.5384
32.5517	42.7986	0.5452
32.5798	43.2917	0.5483
32.6078	42.9236	0.5460
32.6359	43.2639	0.5481
32.6639	43.3750	0.5488
32.6920	42.7292	0.5447
32.7200	43.0764	0.5469
32.7481	42.4722	0.5431
32.7761	41.6319	0.5377
32.8042	42.9167	0.5459
32.8322	42.4861	0.5432
32.8603	42.0278	0.5402
32.8883	42.4167	0.5427
32.9164	42.3681	0.5424
32.9444	41.9653	0.5398
32.9724	42.2708	0.5418
33.0005	42.9375	0.5461
33.0285	42.4722	0.5431
33.0566	42.5694	0.5437
33.0846	41.8403	0.5390
33.1127	42.1250	0.5409
33.1407	41.7222	0.5383
33.1688	41.9236	0.5396
33.1968	42.5139	0.5434
33.2249	42.3194	0.5421
33.2529	42.9444	0.5461
33.2810	42.1597	0.5411
33.3090	42.7847	0.5451
33.3371	43.0000	0.5465
33.3651	41.6806	0.5380
33.3932	42.1389	0.5410
33.4212	43.0625	0.5469
33.4493	42.4444	0.5429
33.4773	42.8750	0.5457
33.5054	42.4861	0.5432
33.5334	42.0278	0.5402
33.5615	42.4653	0.5430
33.5895	41.9375	0.5397
33.6176	41.0972	0.5342
33.6456	41.1736	0.5347
33.6737	42.7708	0.5450
33.7017	41.6736	0.5380
33.7298	43.0000	0.5465
33.7578	42.2917	0.5419
33.7859	42.1667	0.5411
33.8139	41.8542	0.5391
33.8420	42.5556	0.5436
33.8700	42.1667	0.5411
33.8980	41.8403	0.5390
33.9261	41.9375	0.5397
33.9541	42.0139	0.5402
33.9822	42.5764	0.5438
34.0102	42.2361	0.5416
34.0383	41.6875	0.5380
34.0663	41.6389	0.5377
34.0944	42.3750	0.5425
34.1224	41.8819	0.5393
34.1505	41.9792	0.5399
34.1785	41.5486	0.5372
34.2066	41.9861	0.5400
34.2346	41.8542	0.5391
34.2627	42.0139	0.5402
34.2907	42.2431	0.5416
34.3188	41.6389	0.5377
34.3468	42.3056	0.5420
34.3749	41.7569	0.5385
34.4029	42.4444	0.5429
34.4310	41.6736	0.5380
34.4590	41.8403	0.5390
34.4871	41.6528	0.5378
34.5151	41.2153	0.5350
34.5432	41.3681	0.5360
34.5712	41.9444	0.5397
34.5993	42.2083	0.5414
34.6273	42.2361	0.5416
34.6554	42.0347	0.5403
34.6834	42.8056	0.5452
34.7115	41.3056	0.5356
34.7395	42.1528	0.5410
34.7676	42.1528	0.5410
34.7956	41.8125	0.5389
34.8237	41.0764	0.5341
34.8517	41.5000	0.5368
34.8797	41.1458	0.5345
34.9078	41.6250	0.5376
34.9358	42.2847	0.5419
34.9639	42.7500	0.5449
34.9919	41.4028	0.5362
35.0200	42.6875	0.5445
35.0480	42.5694	0.5437
35.0761	41.8125	0.5389
35.1041	41.4653	0.5366
35.1322	41.0139	0.5337
35.1602	42.6875	0.5445
35.1883	42.5417	0.5435
35.2163	41.6111	0.5376
35.2444	42.0208	0.5402
35.2724	40.7292	0.5318
35.3005	42.2847	0.5419
35.3285	41.4444	0.5365
35.3566	40.9444	0.5332
35.3846	41.6944	0.5381
35.4127	42.3819	0.5425
35.4407	43.7500	0.5512
35.4688	42.6111	0.5440
35.4968	42.5903	0.5438
35.5249	41.8125	0.5389
35.5529	43.2361	0.5480
35.5810	43.3125	0.5484
35.6090	43.8056	0.5515
35.6371	44.4931	0.5559
35.6651	44.8958	0.5584
35.6932	44.5417	0.5562
35.7212	44.8472	0.5581
35.7493	45.1319	0.5598
35.7773	46.3611	0.5674
35.8053	45.5903	0.5627
35.8334	47.1944	0.5725
35.8614	46.7222	0.5696
35.8895	47.3681	0.5735
35.9175	48.8542	0.5825
35.9456	48.1042	0.5780
35.9736	48.2014	0.5786
36.0017	50.9097	0.5946
36.0297	51.8125	0.5998
36.0578	51.5069	0.5981
36.0858	53.9306	0.6120
36.1139	55.0486	0.6183
36.1419	56.8542	0.6283
36.1700	57.3819	0.6313
36.1980	58.8750	0.6394
36.2261	60.7222	0.6494
36.2541	61.1528	0.6517
36.2822	62.2014	0.6572
36.3102	60.8472	0.6500
36.3383	59.9861	0.6454
36.3663	58.3472	0.6365
36.3944	55.0000	0.6180
36.4224	52.2917	0.6026
36.4505	52.4375	0.6034
36.4785	49.1806	0.5844
36.5066	48.1181	0.5781
36.5346	46.0903	0.5657
36.5627	46.1736	0.5663
36.5907	44.2222	0.5542
36.6188	44.4514	0.5556
36.6468	44.5347	0.5561
36.6749	42.9931	0.5464
36.7029	42.8264	0.5453
36.7310	43.4028	0.5490
36.7590	43.3056	0.5484
36.7870	42.6944	0.5445
36.8151	41.8819	0.5393
36.8431	41.3750	0.5360
36.8712	41.4583	0.5366
36.8992	41.7986	0.5388
36.9273	42.5278	0.5434
36.9553	42.2639	0.5418
36.9834	42.1875	0.5413
37.0114	42.8194	0.5453
37.0395	41.4861	0.5367
37.0675	42.6528	0.5442
37.0956	42.2222	0.5415
37.1236	42.0903	0.5406
37.1517	40.9236	0.5331
37.1797	41.2569	0.5353
37.2078	41.5000	0.5368
37.2358	41.5069	0.5369
37.2639	41.8681	0.5392
37.2919	41.8681	0.5392
37.3200	41.3750	0.5360
37.3480	40.9375	0.5332
37.3761	40.9444	0.5332
37.4041	40.9444	0.5332
37.4322	41.4375	0.5364
37.4602	41.1528	0.5346
37.4883	40.1319	0.5279
37.5163	40.6597	0.5314
37.5444	42.0069	0.5401
37.5724	40.9167	0.5331
37.6005	41.2569	0.5353
37.6285	39.9028	0.5264
37.6566	40.8542	0.5326
37.6846	40.8611	0.5327
37.7126	41.0694	0.5340
37.7407	42.0486	0.5404
37.7687	41.7431	0.5384
37.7968	41.6181	0.5376
37.8248	41.6319	0.5377
37.8529	41.1736	0.5347
37.8809	42.1458	0.5410
37.9090	41.5278	0.5370
37.9370	41.4931	0.5368
37.9651	41.2500	0.5352
37.9931	41.7639	0.5385
38.0212	41.6111	0.5376
38.0492	41.3333	0.5358
38.0773	41.7361	0.5384
38.1053	43.3958	0.5490
38.1334	41.8125	0.5389
38.1614	41.6597	0.5379
38.1895	43.5000	0.5496
38.2175	42.4583	0.5430
38.2456	42.1181	0.5408
38.2736	42.4931	0.5432
38.3017	42.0139	0.5402
38.3297	42.9653	0.5462
38.3578	42.1667	0.5411
38.3858	42.5139	0.5434
38.4139	41.8542	0.5391
38.4419	42.6667	0.5443
38.4700	43.1319	0.5473
38.4980	42.3333	0.5422
38.5261	42.2431	0.5416
38.5541	42.7917	0.5451
38.5822	43.7153	0.5510
38.6102	42.8333	0.5454
38.6383	42.7292	0.5447
38.6663	42.5069	0.5433
38.6943	43.8819	0.5520
38.7224	43.1042	0.5471
38.7504	43.5347	0.5498
38.7785	43.7917	0.5515
38.8065	42.8333	0.5454
38.8346	42.7083	0.5446
38.8626	43.4653	0.5494
38.8907	44.9375	0.5586
38.9187	45.4653	0.5619
38.9468	45.3819	0.5614
38.9748	43.7292	0.5511
39.0029	44.2569	0.5544
39.0309	46.1667	0.5662
39.0590	44.6528	0.5569
39.0870	46.2083	0.5665
39.1151	47.6736	0.5754
39.1431	46.8194	0.5702
39.1712	48.1875	0.5785
39.1992	48.6250	0.5811
39.2273	49.2639	0.5849
39.2553	49.1389	0.5842
39.2834	48.9028	0.5828
39.3114	50.8611	0.5943
39.3395	50.7500	0.5937
39.3675	51.7153	0.5993
39.3956	53.0694	0.6071
39.4236	53.3264	0.6085
39.4517	53.6319	0.6103
39.4797	54.7153	0.6164
39.5078	55.5903	0.6213
39.5358	55.7014	0.6219
39.5639	57.4375	0.6316
39.5919	57.3333	0.6310
39.6199	59.3333	0.6419
39.6480	61.9306	0.6558
39.6760	62.4931	0.6588
39.7041	63.0556	0.6617
39.7321	65.3333	0.6736
39.7602	67.6597	0.6855
39.7882	69.2083	0.6933
39.8163	72.4722	0.7094
39.8443	74.2083	0.7179
39.8724	76.9583	0.7310
39.9004	81.1944	0.7509
39.9285	83.8472	0.7631
39.9565	86.9722	0.7772
39.9846	92.6875	0.8023
40.0126	99.2292	0.8301
40.0407	105.1528	0.8545
40.0687	111.7014	0.8807
40.0968	120.4375	0.9145
40.1248	128.9306	0.9462
40.1529	139.9097	0.9857
40.1809	151.5417	1.0259
40.2090	167.4514	1.0784
40.2370	183.1111	1.1277
40.2651	199.2986	1.1764
40.2931	219.3611	1.2342
40.3212	241.1042	1.2940
40.3492	262.7917	1.3509
40.3773	285.9375	1.4091
40.4053	316.0000	1.4814
40.4334	340.5000	1.5377
40.4614	369.9792	1.6029
40.4895	400.8958	1.6685
40.5175	429.2500	1.7265
40.5456	462.1250	1.7914
40.5736	491.1875	1.8469
40.6016	516.8958	1.8946
40.6297	537.6597	1.9323
40.6577	556.3264	1.9655
40.6858	564.4653	1.9799
40.7138	568.1944	1.9864
40.7419	568.5972	1.9871
40.7699	557.3611	1.9674
40.7980	541.8542	1.9398
40.8260	520.1042	1.9005
40.8541	493.0833	1.8505
40.8821	464.7986	1.7966
40.9102	428.3472	1.7247
40.9382	400.8125	1.6684
40.9663	365.6944	1.5936
40.9943	339.0903	1.5345
41.0224	311.9861	1.4719
41.0504	279.6458	1.3936
41.0785	253.1042	1.3258
41.1065	234.8125	1.2770
41.1346	211.3472	1.2115
41.1626	192.7986	1.1571
41.1907	177.0000	1.1087
41.2187	161.7083	1.0597
41.2468	148.4444	1.0153
41.2748	137.4444	0.9770
41.3029	128.0625	0.9430
41.3309	119.2986	0.9102
41.3590	113.7153	0.8886
41.3870	103.7431	0.8488
41.4151	97.2708	0.8219
41.4431	92.5486	0.8017
41.4712	87.7222	0.7805
41.4992	83.7083	0.7624
41.5273	79.9097	0.7449
41.5553	76.7014	0.7298
41.5833	74.5556	0.7195
41.6114	71.9375	0.7068
41.6394	68.9722	0.6921
41.6675	68.1875	0.6881
41.6955	67.0833	0.6825
41.7236	64.8403	0.6710
41.7516	65.3681	0.6738
41.7797	64.3750	0.6686
41.8077	63.2361	0.6627
41.8358	63.3819	0.6634
41.8638	63.3958	0.6635
41.8919	65.6736	0.6753
41.9199	65.7431	0.6757
41.9480	66.9375	0.6818
41.9760	67.5903	0.6851
42.0041	70.9236	0.7018
42.0321	72.2847	0.7085
42.0602	75.0000	0.7217
42.0882	76.1597	0.7272
42.1163	77.4653	0.7335
42.1443	78.5139	0.7384
42.1724	80.0833	0.7457
42.2004	77.1042	0.7317
42.2285	76.0347	0.7266
42.2565	72.3958	0.7090
42.2846	70.3681	0.6990
42.3126	67.7222	0.6858
42.3407	64.9375	0.6715
42.3687	59.8681	0.6448
42.3968	58.3611	0.6366
42.4248	55.5694	0.6212
42.4529	55.1528	0.6189
42.4809	52.6597	0.6047
42.5089	52.6597	0.6047
42.5370	51.6250	0.5988
42.5650	49.8750	0.5885
42.5931	50.0833	0.5897
42.6211	48.6528	0.5813
42.6492	47.7153	0.5756
42.6772	46.7986	0.5701
42.7053	46.0347	0.5654
42.7333	45.1667	0.5601
42.7614	44.5556	0.5562
42.7894	44.8750	0.5582
42.8175	44.2778	0.5545
42.8455	43.5139	0.5497
42.8736	44.3542	0.5550
42.9016	43.9236	0.5523
42.9297	42.3889	0.5426
42.9577	41.8889	0.5393
42.9858	41.8958	0.5394
43.0138	41.9375	0.5397
43.0419	41.7708	0.5386
43.0699	41.3264	0.5357
43.0980	42.5556	0.5436
43.1260	41.2222	0.5350
43.1541	40.0417	0.5273
43.1821	41.4792	0.5367
43.2102	40.5069	0.5304
43.2382	39.9028	0.5264
43.2663	41.2569	0.5353
43.2943	41.9931	0.5400
43.3224	39.4861	0.5236
43.3504	39.8403	0.5260
43.3785	40.9583	0.5333
43.4065	39.6250	0.5246
43.4346	39.8403	0.5260
43.4626	39.0347	0.5206
43.4906	39.5208	0.5239
43.5187	39.8889	0.5263
43.5467	39.6806	0.5249
43.5748	39.4861	0.5236
43.6028	38.5625	0.5175
43.6309	38.7986	0.5191
43.6589	39.4444	0.5234
43.6870	38.3264	0.5159
43.7150	39.3125	0.5225
43.7431	38.8333	0.5193
43.7711	39.0069	0.5205
43.7992	38.1528	0.5147
43.8272	38.5833	0.5176
43.8553	38.6181	0.5179
43.8833	39.0764	0.5209
43.9114	39.1458	0.5214
43.9394	38.4028	0.5164
43.9675	38.2222	0.5152
43.9955	37.9792	0.5136
44.0236	38.6806	0.5183
44.0516	38.0069	0.5137
44.0797	37.7569	0.5121
44.1077	38.0625	0.5141
44.1358	38.5278	0.5173
44.1638	37.7292	0.5119
44.1919	37.7014	0.5117
44.2199	38.3194	0.5159
44.2480	38.3958	0.5164
44.2760	38.8611	0.5195
44.3041	38.8958	0.5197
44.3321	38.0417	0.5140
44.3602	38.8333	0.5193
44.3882	39.0764	0.5209
44.4162	38.8125	0.5192
44.4443	38.3056	0.5158
44.4723	37.9167	0.5131
44.5004	37.1389	0.5078
44.5284	37.9722	0.5135
44.5565	36.8958	0.5062
44.5845	37.8611	0.5128
44.6126	38.0069	0.5137
44.6406	39.0347	0.5206
44.6687	37.6250	0.5112
44.6967	37.5833	0.5109
44.7248	37.0278	0.5071
44.7528	37.6667	0.5114
44.7809	36.2639	0.5018
44.8089	36.9792	0.5068
44.8370	36.5486	0.5038
44.8650	35.8264	0.4988
44.8931	36.2917	0.5020
44.9211	36.1597	0.5011
44.9492	36.4792	0.5033
44.9772	36.3403	0.5024
45.0053	36.9931	0.5068
45.0333	36.1736	0.5012
45.0614	35.9792	0.4999
45.0894	36.8611	0.5059
45.1175	36.6111	0.5042
45.1455	36.7431	0.5051
45.1736	36.4653	0.5032
45.2016	37.3542	0.5093
45.2297	36.4514	0.5031
45.2577	36.3333	0.5023
45.2858	36.8542	0.5059
45.3138	35.5347	0.4968
45.3419	35.5139	0.4966
45.3699	36.5694	0.5039
45.3979	36.0972	0.5007
45.4260	36.3819	0.5026
45.4540	36.8194	0.5057
45.4821	35.2292	0.4946
45.5101	35.7917	0.4986
45.5382	35.7431	0.4982
45.5662	35.1667	0.4942
45.5943	35.7847	0.4985
45.6223	36.0069	0.5000
45.6504	35.6319	0.4974
45.6784	34.5694	0.4900
45.7065	35.2639	0.4949
45.7345	35.7153	0.4980
45.7626	34.2153	0.4874
45.7906	35.8472	0.4989
45.8187	35.3194	0.4953
45.8467	36.2153	0.5015
45.8748	36.8681	0.5060
45.9028	34.8264	0.4918
45.9309	35.9375	0.4996
45.9589	36.1944	0.5013
45.9870	35.1319	0.4939
46.0150	35.2569	0.4948
46.0431	35.0139	0.4931
46.0711	35.0556	0.4934
46.0992	35.1875	0.4943
46.1272	35.3333	0.4953
46.1553	35.0347	0.4933
46.1833	35.0278	0.4932
46.2114	35.1667	0.4942
46.2394	35.8056	0.4986
46.2675	35.3125	0.4952
46.2955	35.1597	0.4941
46.3235	35.3958	0.4958
46.3516	35.4514	0.4962
46.3796	34.9722	0.4928
46.4077	34.6042	0.4902
46.4357	34.5972	0.4902
46.4638	35.2222	0.4946
46.4918	35.0694	0.4935
46.5199	35.1111	0.4938
46.5479	35.5208	0.4967
46.5760	33.7986	0.4845
46.6040	34.6319	0.4904
46.6321	34.8889	0.4922
46.6601	36.1181	0.5008
46.6882	34.4931	0.4894
46.7162	34.6250	0.4904
46.7443	35.5833	0.4971
46.7723	34.2083	0.4874
46.8004	34.2639	0.4878
46.8284	34.5625	0.4899
46.8565	34.2847	0.4879
46.8845	34.7986	0.4916
46.9126	34.5000	0.4895
46.9406	34.7778	0.4914
46.9687	34.4722	0.4893
46.9967	34.9097	0.4924
47.0248	34.5833	0.4901
47.0528	34.7778	0.4914
47.0809	34.6319	0.4904
47.1089	34.1944	0.4873
47.1370	35.0694	0.4935
47.1650	35.0208	0.4932
47.1931	34.6667	0.4907
47.2211	34.7431	0.4912
47.2492	34.6111	0.4903
47.2772	34.5139	0.4896
47.3052	34.6458	0.4905
47.3333	33.9167	0.4853
47.3613	34.4931	0.4894
47.3894	34.3264	0.4882
47.4174	33.9306	0.4854
47.4455	33.8472	0.4848
47.4735	34.7222	0.4910
47.5016	34.7014	0.4909
47.5296	32.9931	0.4787
47.5577	33.7361	0.4840
47.5857	34.3611	0.4885
47.6138	35.1250	0.4939
47.6418	33.5972	0.4830
47.6699	33.6597	0.4835
47.6979	33.5833	0.4829
47.7260	34.6736	0.4907
47.7540	34.5278	0.4897
47.7821	33.9722	0.4857
47.8101	33.8056	0.4845
47.8382	34.0764	0.4865
47.8662	33.7917	0.4844
47.8943	34.5347	0.4897
47.9223	34.2569	0.4877
47.9504	34.0903	0.4866
47.9784	33.2500	0.4805
48.0065	33.4583	0.4820
48.0345	34.6319	0.4904
48.0626	33.6389	0.4833
48.0906	34.2778	0.4879
48.1187	34.3333	0.4883
48.1467	34.3681	0.4885
48.1748	33.9792	0.4858
48.2028	34.0903	0.4866
48.2309	33.4097	0.4817
48.2589	34.5903	0.4901
48.2869	34.2778	0.4879
48.3150	34.0139	0.4860
48.3430	33.2917	0.4808
48.3711	32.5069	0.4751
48.3991	33.5764	0.4829
48.4272	33.1597	0.4799
48.4552	34.0903	0.4866
48.4833	34.4306	0.4890
48.5113	33.0417	0.4790
48.5394	33.9375	0.4855
48.5674	34.0625	0.4864
48.5955	32.2500	0.4732
48.6235	34.0556	0.4863
48.6516	33.2431	0.4805
48.6796	34.0278	0.4861
48.7077	34.1181	0.4868
48.7357	33.3889	0.4815
48.7638	33.7847	0.4844
48.7918	33.3681	0.4814
48.8199	34.2153	0.4874
48.8479	33.0208	0.4789
48.8760	33.5417	0.4826
48.9040	34.2569	0.4877
48.9321	33.8750	0.4850
48.9601	33.3542	0.4813
48.9882	32.6389	0.4761
49.0162	33.6528	0.4834
49.0443	32.9306	0.4782
49.0723	33.4097	0.4817
49.1004	33.5486	0.4827
49.1284	33.9375	0.4855
49.1565	33.9028	0.4852
49.1845	33.1875	0.4801
49.2125	33.7361	0.4840
49.2406	33.5139	0.4824
49.2686	33.1597	0.4799
49.2967	32.8681	0.4778
49.3247	33.4097	0.4817
49.3528	33.6250	0.4832
49.3808	33.1528	0.4798
49.4089	33.2917	0.4808
49.4369	33.6528	0.4834
49.4650	33.6597	0.4835
49.4930	33.8194	0.4846
49.5211	33.5833	0.4829
49.5491	33.5486	0.4827
49.5772	34.0417	0.4862
49.6052	33.4444	0.4819
49.6333	33.5347	0.4826
49.6613	33.9306	0.4854
49.6894	32.8125	0.4774
49.7174	33.3681	0.4814
49.7455	32.8889	0.4779
49.7735	33.5208	0.4825
49.8016	33.0278	0.4789
49.8296	32.9653	0.4785
49.8577	32.9028	0.4780
49.8857	33.8611	0.4849
49.9138	33.4792	0.4822
49.9418	33.5625	0.4828
49.9699	33.8403	0.4848
49.9979	32.0486	0.4718
50.0260	33.7292	0.4840
50.0540	33.0139	0.4788
50.0821	32.6806	0.4764
50.1101	32.5694	0.4756
50.1382	32.5347	0.4753
50.1662	33.0486	0.4791
50.1942	33.0903	0.4794
50.2223	33.1111	0.4795
50.2503	32.7986	0.4773
50.2784	33.3611	0.4813
50.3064	32.2153	0.4730
50.3345	33.1181	0.4796
50.3625	32.3611	0.4741
50.3906	31.9306	0.4709
50.4186	33.3681	0.4814
50.4467	32.9722	0.4785
50.4747	33.0069	0.4788
50.5028	32.1319	0.4724
50.5308	33.3889	0.4815
50.5589	33.1042	0.4795
50.5869	33.2153	0.4803
50.6150	32.2153	0.4730
50.6430	33.3264	0.4811
50.6711	33.7153	0.4839
50.6991	33.4792	0.4822
50.7272	32.9375	0.4783
50.7552	32.3264	0.4738
50.7833	33.3542	0.4813
50.8113	33.3194	0.4810
50.8394	32.9514	0.4784
50.8674	32.1389	0.4724
50.8955	32.7292	0.4767
50.9235	32.5208	0.4752
50.9516	32.6875	0.4764
50.9796	32.6042	0.4758
51.0077	32.7986	0.4773
51.0357	32.7222	0.4767
51.0638	33.1111	0.4795
51.0918	32.3611	0.4741
51.1198	33.4375	0.4819
51.1479	32.8403	0.4776
51.1759	31.7500	0.4696
51.2040	32.8194	0.4774
51.2320	32.6389	0.4761
51.2601	32.5486	0.4754
51.2881	33.6736	0.4836
51.3162	31.9583	0.4711
51.3442	32.1667	0.4726
51.3723	31.9236	0.4708
51.4003	32.8611	0.4777
51.4284	31.8819	0.4705
51.4564	32.2083	0.4729
51.4845	32.5972	0.4758
51.5125	33.3819	0.4815
51.5406	32.5972	0.4758
51.5686	32.2014	0.4729
51.5967	33.2708	0.4807
51.6247	33.0208	0.4789
51.6528	33.3264	0.4811
51.6808	31.5764	0.4683
51.7089	32.8264	0.4775
51.7369	34.1528	0.4870
51.7650	32.8611	0.4777
51.7930	32.6875	0.4764
51.8211	31.6944	0.4691
51.8491	32.8056	0.4773
51.8772	32.2847	0.4735
51.9052	34.0139	0.4860
51.9333	32.8750	0.4778
51.9613	33.2986	0.4809
51.9894	31.9861	0.4713
52.0174	32.4792	0.4749
52.0455	31.7083	0.4693
52.0735	33.0000	0.4787
52.1015	32.5208	0.4752
52.1296	32.2708	0.4734
52.1576	33.8403	0.4848
52.1857	33.1389	0.4797
52.2137	32.8542	0.4777
52.2418	32.8333	0.4775
52.2698	32.8194	0.4774
52.2979	32.4931	0.4750
52.3259	32.7083	0.4766
52.3540	32.7500	0.4769
52.3820	33.3819	0.4815
52.4101	33.7361	0.4840
52.4381	32.2708	0.4734
52.4662	33.2361	0.4804
52.4942	32.9931	0.4787
52.5223	32.1667	0.4726
52.5503	32.5069	0.4751
52.5784	31.7431	0.4695
52.6064	33.3472	0.4812
52.6345	32.6181	0.4759
52.6625	32.5486	0.4754
52.6906	33.4514	0.4820
52.7186	33.5347	0.4826
52.7467	33.0069	0.4788
52.7747	33.1597	0.4799
52.8028	33.0069	0.4788
52.8308	33.3819	0.4815
52.8589	32.7569	0.4769
52.8869	32.5556	0.4755
52.9150	33.3264	0.4811
52.9430	32.7083	0.4766
52.9711	32.7292	0.4767
52.9991	33.1458	0.4798
53.0271	32.2569	0.4733
53.0552	33.5278	0.4825
53.0832	32.7083	0.4766
53.1113	32.6806	0.4764
53.1393	32.0278	0.4716
53.1674	32.7431	0.4768
53.1954	32.0208	0.4716
53.2235	31.7639	0.4697
53.2515	32.0972	0.4721
53.2796	32.7778	0.4771
53.3076	32.8611	0.4777
53.3357	33.5903	0.4830
53.3637	32.9028	0.4780
53.3918	33.2083	0.4802
53.4198	33.5556	0.4827
53.4479	32.4653	0.4748
53.4759	33.0347	0.4790
53.5040	32.4722	0.4749
53.5320	32.8333	0.4775
53.5601	32.4028	0.4744
53.5881	32.5000	0.4751
53.6162	32.7569	0.4769
53.6442	32.0764	0.4720
53.6723	31.6111	0.4685
53.7003	32.4028	0.4744
53.7284	32.4861	0.4750
53.7564	32.6667	0.4763
53.7845	33.2986	0.4809
53.8125	33.2292	0.4804
53.8406	32.2222	0.4730
53.8686	32.5278	0.4753
53.8967	32.6458	0.4761
53.9247	32.0417	0.4717
53.9528	32.7639	0.4770
53.9808	32.5694	0.4756
54.0088	32.8750	0.4778
54.0369	32.9722	0.4785
54.0649	33.0278	0.4789
54.0930	32.6250	0.4760
54.1210	32.1389	0.4724
54.1491	32.4931	0.4750
54.1771	33.2222	0.4803
54.2052	33.2153	0.4803
54.2332	32.5764	0.4756
54.2613	32.7361	0.4768
54.2893	32.8819	0.4779
54.3174	32.5486	0.4754
54.3454	32.6042	0.4758
54.3735	32.6806	0.4764
54.4015	32.2986	0.4736
54.4296	32.6389	0.4761
54.4576	32.1944	0.4728
54.4857	32.9444	0.4783
54.5137	32.3542	0.4740
54.5418	32.6181	0.4759
54.5698	32.1528	0.4725
54.5979	32.8125	0.4774
54.6259	33.3889	0.4815
54.6540	32.8333	0.4775
54.6820	32.3125	0.4737
54.7101	33.1458	0.4798
54.7381	32.2569	0.4733
54.7662	32.3611	0.4741
54.7942	32.2500	0.4732
54.8223	33.1181	0.4796
54.8503	31.8472	0.4703
54.8784	33.0417	0.4790
54.9064	32.0833	0.4720
54.9344	31.8056	0.4700
54.9625	32.7569	0.4769
54.9905	32.8611	0.4777
55.0186	32.2083	0.4729
55.0466	32.2361	0.4731
55.0747	33.2778	0.4807
55.1027	32.4792	0.4749
55.1308	32.5417	0.4754
55.1588	32.5764	0.4756
55.1869	32.6597	0.4762
55.2149	32.3889	0.4743
55.2430	32.5694	0.4756
55.2710	33.9514	0.4856
55.2991	33.0347	0.4790
55.3271	32.3472	0.4740
55.3552	32.4167	0.4745
55.3832	33.1181	0.4796
55.4113	32.6944	0.4765
55.4393	32.5903	0.4757
55.4674	32.5278	0.4753
55.4954	32.9028	0.4780
55.5235	33.0833	0.4793
55.5515	33.3264	0.4811
55.5796	32.8889	0.4779
55.6076	33.0069	0.4788
55.6357	32.7222	0.4767
55.6637	33.1944	0.4801
55.6918	33.1181	0.4796
55.7198	33.4653	0.4821
55.7479	32.7222	0.4767
55.7759	33.6875	0.4837
55.8040	33.1597	0.4799
55.8320	33.2500	0.4805
55.8601	33.7708	0.4843
55.8881	33.5417	0.4826
55.9161	33.3194	0.4810
55.9442	33.2778	0.4807
55.9722	33.3333	0.4811
56.0003	33.5694	0.4828
56.0283	33.9167	0.4853
56.0564	33.2500	0.4805
56.0844	33.1181	0.4796
56.1125	33.8819	0.4851
56.1405	34.1597	0.4871
56.1686	34.0694	0.4864
56.1966	33.9028	0.4852
56.2247	33.7778	0.4843
56.2527	33.9444	0.4855
56.2808	33.9097	0.4853
56.3088	34.3958	0.4887
56.3369	33.8750	0.4850
56.3649	33.7569	0.4842
56.3930	34.0556	0.4863
56.4210	34.6250	0.4904
56.4491	34.7778	0.4914
56.4771	34.4306	0.4890
56.5052	34.7986	0.4916
56.5332	34.6250	0.4904
56.5613	35.1042	0.4937
56.5893	34.2431	0.4876
56.6174	34.6111	0.4903
56.6454	35.7708	0.4984
56.6735	34.9444	0.4926
56.7015	34.9444	0.4926
56.7296	35.8264	0.4988
56.7576	35.4097	0.4959
56.7857	35.1042	0.4937
56.8137	35.5486	0.4969
56.8418	35.2292	0.4946
56.8698	35.9722	0.4998
56.8978	36.1319	0.5009
56.9259	36.8333	0.5058
56.9539	36.4653	0.5032
56.9820	35.8194	0.4987
57.0100	36.2431	0.5017
57.0381	37.2083	0.5083
57.0661	36.7153	0.5049
57.0942	37.6042	0.5110
57.1222	37.0625	0.5073
57.1503	37.5764	0.5108
57.1783	38.2917	0.5157
57.2064	37.3264	0.5091
57.2344	37.0486	0.5072
57.2625	37.5208	0.5105
57.2905	38.1111	0.5145
57.3186	39.1667	0.5215
57.3466	38.7361	0.5187
57.3747	40.3611	0.5294
57.4027	39.0903	0.5210
57.4308	41.5486	0.5372
57.4588	39.2083	0.5218
57.4869	39.8264	0.5259
57.5149	41.4861	0.5367
57.5430	41.5556	0.5372
57.5710	41.5486	0.5372
57.5991	43.0903	0.5470
57.6271	42.8194	0.5453
57.6552	44.0764	0.5533
57.6832	42.7222	0.5447
57.7113	44.5486	0.5562
57.7393	45.9375	0.5648
57.7674	45.3750	0.5613
57.7954	46.6250	0.5690
57.8234	48.1528	0.5783
57.8515	48.9792	0.5832
57.8795	50.8681	0.5943
57.9076	52.7153	0.6050
57.9356	55.2639	0.6195
57.9637	54.4583	0.6150
57.9917	56.7708	0.6279
58.0198	58.1319	0.6354
58.0478	61.3264	0.6526
58.0759	63.9583	0.6664
58.1039	66.3750	0.6789
58.1320	68.4861	0.6896
58.1600	70.3194	0.6988
58.1881	73.9097	0.7164
58.2161	77.2708	0.7325
58.2442	82.3750	0.7563
58.2722	85.5903	0.7710
58.3003	91.1667	0.7957
58.3283	95.2847	0.8134
58.3564	99.1736	0.8299
58.3844	105.7014	0.8568
58.4125	112.7917	0.8850
58.4405	117.2361	0.9023
58.4686	122.7500	0.9233
58.4966	131.8819	0.9570
58.5247	138.8403	0.9819
58.5527	146.2083	1.0076
58.5808	154.2986	1.0351
58.6088	161.1458	1.0579
58.6369	170.0694	1.0868
58.6649	175.8611	1.1051
58.6930	181.6875	1.1233
58.7210	190.1667	1.1492
58.7491	197.4653	1.1710
58.7771	202.5833	1.1861
58.8051	207.9514	1.2017
58.8332	213.1181	1.2165
58.8612	216.8472	1.2271
58.8893	217.2986	1.2284
58.9173	218.3264	1.2313
58.9454	218.2500	1.2311
58.9734	215.7014	1.2239
59.0015	214.6597	1.2209
59.0295	210.1944	1.2082
59.0576	206.8819	1.1986
59.0856	201.6944	1.1835
59.1137	194.5278	1.1623
59.1417	188.3889	1.1438
59.1698	180.4097	1.1193
59.1978	173.5208	1.0977
59.2259	163.5278	1.0656
59.2539	156.8889	1.0438
59.2820	146.9653	1.0102
59.3100	137.3403	0.9766
59.3381	132.3125	0.9586
59.3661	122.9375	0.9240
59.3942	118.2292	0.9061
59.4222	110.5069	0.8760
59.4503	103.1250	0.8463
59.4783	99.1736	0.8299
59.5064	93.1667	0.8044
59.5344	87.9097	0.7813
59.5625	83.6806	0.7623
59.5905	80.2014	0.7463
59.6186	76.3819	0.7283
59.6466	71.4167	0.7042
59.6747	69.7917	0.6962
59.7027	64.7222	0.6704
59.7307	64.4097	0.6688
59.7588	61.1458	0.6516
59.7868	58.1458	0.6354
59.8149	56.8403	0.6283
59.8429	55.7569	0.6223
59.8710	53.3125	0.6085
59.8990	51.2361	0.5965
59.9271	51.1111	0.5958
59.9551	49.9722	0.5891
59.9832	48.6319	0.5811
60.0112	47.7917	0.5761
60.0393	45.4444	0.5618
60.0673	46.6111	0.5689
60.0954	44.7639	0.5575
60.1234	45.5208	0.5622
60.1515	43.6319	0.5505
60.1795	41.7708	0.5386
60.2076	42.8264	0.5453
60.2356	41.6806	0.5380
60.2637	41.4861	0.5367
60.2917	41.7083	0.5382
60.3198	42.0486	0.5404
60.3478	41.5417	0.5371
60.3759	39.9167	0.5265
60.4039	39.8125	0.5258
60.4320	41.0417	0.5339
60.4600	40.5139	0.5304
60.4881	40.5764	0.5308
60.5161	39.8542	0.5261
60.5442	40.1875	0.5283
60.5722	40.3819	0.5296
60.6003	40.3958	0.5296
60.6283	40.3958	0.5296
60.6564	41.0556	0.5340
60.6844	40.9375	0.5332
60.7124	42.0764	0.5406
60.7405	42.4167	0.5427
60.7685	42.0625	0.5405
60.7966	43.0833	0.5470
60.8246	45.6181	0.5628
60.8527	45.8958	0.5646
60.8807	45.5764	0.5626
60.9088	46.2153	0.5665
60.9368	47.1458	0.5722
60.9649	47.6111	0.5750
60.9929	47.3472	0.5734
61.0210	48.2847	0.5791
61.0490	49.1250	0.5841
61.0771	48.6042	0.5810
61.1051	47.7431	0.5758
61.1332	46.8542	0.5704
61.1612	48.1806	0.5784
61.1893	46.5833	0.5688
61.2173	45.6458	0.5630
61.2454	44.5486	0.5562
61.2734	43.0556	0.5468
61.3015	42.7083	0.5446
61.3295	40.8333	0.5325
61.3576	39.8889	0.5263
61.3856	38.0625	0.5141
61.4137	38.2569	0.5154
61.4417	37.5069	0.5104
61.4698	37.4583	0.5100
61.4978	36.4097	0.5028
61.5259	36.1736	0.5012
61.5539	36.3611	0.5025
61.5820	35.6458	0.4975
61.6100	35.4306	0.4960
61.6380	35.0000	0.4930
61.6661	35.1042	0.4937
61.6941	34.5625	0.4899
61.7222	34.5486	0.4898
61.7502	33.4653	0.4821
61.7783	32.9722	0.4785
61.8063	33.3611	0.4813
61.8344	34.2847	0.4879
61.8624	33.5278	0.4825
61.8905	34.2569	0.4877
61.9185	33.7569	0.4842
61.9466	34.0139	0.4860
61.9746	34.1319	0.4869
62.0027	32.5139	0.4752
62.0307	34.0556	0.4863
62.0588	32.9931	0.4787
62.0868	33.4097	0.4817
62.1149	32.9931	0.4787
62.1429	32.9722	0.4785
62.1710	33.0556	0.4791
62.1990	34.0347	0.4862
62.2271	32.9167	0.4781
62.2551	32.7222	0.4767
62.2832	33.8542	0.4849
62.3112	32.9306	0.4782
62.3393	33.5833	0.4829
62.3673	32.3542	0.4740
62.3954	33.1389	0.4797
62.4234	32.4722	0.4749
62.4515	32.7222	0.4767
62.4795	32.8542	0.4777
62.5076	33.2083	0.4802
62.5356	32.4861	0.4750
62.5637	33.0069	0.4788
62.5917	32.6736	0.4763
62.6197	33.1319	0.4797
62.6478	33.6528	0.4834
62.6758	33.5556	0.4827
62.7039	33.6319	0.4833
62.7319	32.8542	0.4777
62.7600	32.5417	0.4754
62.7880	32.2708	0.4734
62.8161	32.6736	0.4763
62.8441	33.7222	0.4839
62.8722	33.3681	0.4814
62.9002	32.4306	0.4746
62.9283	32.9375	0.4783
62.9563	33.1389	0.4797
62.9844	33.4583	0.4820
63.0124	32.1667	0.4726
63.0405	32.6944	0.4765
63.0685	33.4167	0.4817
63.0966	32.5972	0.4758
63.1246	33.1875	0.4801
63.1527	32.7222	0.4767
63.1807	33.1042	0.4795
63.2088	32.7014	0.4765
63.2368	33.0486	0.4791
63.2649	32.3264	0.4738
63.2929	32.4931	0.4750
63.3210	33.1667	0.4799
63.3490	32.4722	0.4749
63.3771	33.0000	0.4787
63.4051	32.3333	0.4739
63.4332	32.9167	0.4781
63.4612	32.7778	0.4771
63.4893	33.0486	0.4791
63.5173	32.3403	0.4739
63.5453	32.5833	0.4757
63.5734	32.9306	0.4782
63.6014	33.8056	0.4845
63.6295	32.1736	0.4727
63.6575	33.9375	0.4855
63.6856	32.2431	0.4732
63.7136	32.3819	0.4742
63.7417	32.2292	0.4731
63.7697	32.5625	0.4755
63.7978	33.3681	0.4814
63.8258	32.7986	0.4773
63.8539	32.7083	0.4766
63.8819	32.8681	0.4778
63.9100	32.0972	0.4721
63.9380	33.6806	0.4836
63.9661	32.9792	0.4786
63.9941	32.9931	0.4787
64.0222	32.7500	0.4769
64.0502	33.0486	0.4791
64.0783	32.9653	0.4785
64.1063	33.5139	0.4824
64.1344	33.5000	0.4823
64.1624	33.4444	0.4819
64.1905	32.5556	0.4755
64.2185	32.3681	0.4741
64.2466	33.0694	0.4792
64.2746	32.7639	0.4770
64.3027	33.3472	0.4812
64.3307	33.3056	0.4809
64.3588	34.0208	0.4861
64.3868	33.8194	0.4846
64.4149	33.9167	0.4853
64.4429	33.0000	0.4787
64.4710	34.0903	0.4866
64.4990	33.6875	0.4837
64.5270	33.0139	0.4788
64.5551	34.7083	0.4909
64.5831	33.5000	0.4823
64.6112	33.6389	0.4833
64.6392	35.3125	0.4952
64.6673	34.5069	0.4895
64.6953	33.0000	0.4787
64.7234	34.0972	0.4866
64.7514	33.5486	0.4827
64.7795	33.4167	0.4817
64.8075	32.5139	0.4752
64.8356	33.5417	0.4826
64.8636	33.1736	0.4800
64.8917	34.1458	0.4870
64.9197	33.1319	0.4797
64.9478	32.6319	0.4760
64.9758	32.8958	0.4780
65.0039	32.9028	0.4780
65.0319	33.5556	0.4827
65.0600	32.8889	0.4779
65.0880	33.1528	0.4798
65.1161	32.9722	0.4785
65.1441	32.5903	0.4757
65.1722	33.2153	0.4803
65.2002	32.7917	0.4772
65.2283	32.7847	0.4771
65.2563	32.7708	0.4770
65.2844	33.1111	0.4795
65.3124	33.0694	0.4792
65.3405	31.9653	0.4711
65.3685	33.0139	0.4788
65.3966	32.8056	0.4773
65.4246	33.0208	0.4789
65.4527	32.5694	0.4756
65.4807	33.4444	0.4819
65.5087	33.1944	0.4801
65.5368	32.4583	0.4748
65.5648	32.7431	0.4768
65.5929	32.9375	0.4783
65.6209	33.1389	0.4797
65.6490	33.1528	0.4798
65.6770	31.9167	0.4708
65.7051	33.3958	0.4816
65.7331	33.0486	0.4791
65.7612	33.0139	0.4788
65.7892	32.9861	0.4786
65.8173	33.2986	0.4809
65.8453	31.7986	0.4699
65.8734	32.0556	0.4718
65.9014	32.7431	0.4768
65.9295	33.1042	0.4795
65.9575	32.5764	0.4756
65.9856	32.8264	0.4775
66.0136	32.8264	0.4775
66.0417	33.7222	0.4839
66.0697	33.1250	0.4796
66.0978	32.7917	0.4772
66.1258	31.5764	0.4683
66.1539	32.8542	0.4777
66.1819	32.5139	0.4752
66.2100	32.3264	0.4738
66.2380	33.1597	0.4799
66.2661	33.3819	0.4815
66.2941	33.8750	0.4850
66.3222	33.8472	0.4848
66.3502	33.0486	0.4791
66.3783	32.4931	0.4750
66.4063	32.6944	0.4765
66.4343	32.4792	0.4749
66.4624	32.7639	0.4770
66.4904	33.2083	0.4802
66.5185	32.0347	0.4717
66.5465	33.0764	0.4793
66.5746	32.2014	0.4729
66.6026	32.9306	0.4782
66.6307	32.4583	0.4748
66.6587	32.4722	0.4749
66.6868	32.5486	0.4754
66.7148	32.8889	0.4779
66.7429	32.6042	0.4758
66.7709	33.0347	0.4790
66.7990	32.4375	0.4746
66.8270	31.6667	0.4689
66.8551	32.7847	0.4771
66.8831	32.5903	0.4757
66.9112	32.2778	0.4734
66.9392	32.6319	0.4760
66.9673	31.8750	0.4705
66.9953	32.8472	0.4776
67.0234	32.7361	0.4768
67.0514	31.8958	0.4706
67.0795	32.8125	0.4774
67.1075	32.9236	0.4782
67.1356	32.0208	0.4716
67.1636	33.6736	0.4836
67.1917	31.9931	0.4714
67.2197	31.9931	0.4714
67.2478	32.6528	0.4762
67.2758	33.1458	0.4798
67.3039	32.7014	0.4765
67.3319	32.5694	0.4756
67.3600	32.2153	0.4730
67.3880	32.6042	0.4758
67.4160	31.9097	0.4707
67.4441	32.4722	0.4749
67.4721	32.4514	0.4747
67.5002	32.3889	0.4743
67.5282	32.5069	0.4751
67.5563	33.1111	0.4795
67.5843	32.7222	0.4767
67.6124	32.6042	0.4758
67.6404	32.3472	0.4740
67.6685	32.3889	0.4743
67.6965	32.2778	0.4734
67.7246	33.4931	0.4823
67.7526	33.1181	0.4796
67.7807	33.1528	0.4798
67.8087	33.3333	0.4811
67.8368	32.3819	0.4742
67.8648	33.3472	0.4812
67.8929	32.2917	0.4735
67.9209	32.8333	0.4775
67.9490	32.8194	0.4774
67.9770	33.3819	0.4815
68.0051	32.9028	0.4780
68.0331	32.9028	0.4780
68.0612	32.2708	0.4734
68.0892	32.8819	0.4779
68.1173	33.1042	0.4795
68.1453	33.2847	0.4808
68.1734	33.3611	0.4813
68.2014	32.2431	0.4732
68.2295	33.1597	0.4799
68.2575	32.5625	0.4755
68.2856	33.4097	0.4817
68.3136	33.7639	0.4842
68.3416	32.6389	0.4761
68.3697	34.0000	0.4859
68.3977	34.2014	0.4873
68.4258	33.8056	0.4845
68.4538	33.8958	0.4852
68.4819	33.5417	0.4826
68.5099	32.4861	0.4750
68.5380	33.3611	0.4813
68.5660	34.0625	0.4864
68.5941	33.5486	0.4827
68.6221	34.2986	0.4880
68.6502	34.1181	0.4868
68.6782	34.1181	0.4868
68.7063	33.6458	0.4834
68.7343	34.4097	0.4888
68.7624	33.6389	0.4833
68.7904	34.5069	0.4895
68.8185	34.7431	0.4912
68.8465	35.1736	0.4942
68.8746	34.8542	0.4920
68.9026	35.5972	0.4972
68.9307	34.7708	0.4914
68.9587	35.7222	0.4981
68.9868	34.8819	0.4922
69.0148	35.0625	0.4934
69.0429	34.5694	0.4900
69.0709	35.4097	0.4959
69.0990	34.6875	0.4908
69.1270	33.8750	0.4850
69.1551	35.0417	0.4933
69.1831	34.2847	0.4879
69.2112	34.7847	0.4915
69.2392	35.6806	0.4978
69.2673	34.2431	0.4876
69.2953	34.6250	0.4904
69.3233	34.9514	0.4927
69.3514	34.3542	0.4884
69.3794	34.4583	0.4892
69.4075	34.2153	0.4874
69.4355	33.9722	0.4857
69.4636	34.6042	0.4902
69.4916	33.3681	0.4814
69.5197	33.5903	0.4830
69.5477	34.2708	0.4878
69.5758	34.4931	0.4894
69.6038	34.1389	0.4869
69.6319	34.7639	0.4913
69.6599	34.2500	0.4877
69.6880	34.7500	0.4912
69.7160	34.1250	0.4868
69.7441	34.3542	0.4884
69.7721	34.3056	0.4881
69.8002	33.2847	0.4808
69.8282	33.9306	0.4854
69.8563	33.1319	0.4797
69.8843	32.7083	0.4766
69.9124	34.0972	0.4866
69.9404	33.9722	0.4857
69.9685	34.1250	0.4868
69.9965	34.6806	0.4908
70.0246	34.0972	0.4866
70.0526	33.7917	0.4844
70.0807	33.2361	0.4804
70.1087	33.7361	0.4840
70.1368	33.5694	0.4828
70.1648	33.7153	0.4839
70.1929	33.6111	0.4831
70.2209	33.1042	0.4795
70.2489	33.8264	0.4847
70.2770	34.0139	0.4860
70.3050	33.8681	0.4850
70.3331	33.9236	0.4854
70.3611	33.4306	0.4818
70.3892	33.5417	0.4826
70.4172	34.3611	0.4885
70.4453	33.0347	0.4790
70.4733	34.4931	0.4894
70.5014	34.5069	0.4895
70.5294	34.5417	0.4898
70.5575	34.2431	0.4876
70.5855	34.0486	0.4863
70.6136	34.2847	0.4879
70.6416	34.2431	0.4876
70.6697	34.4375	0.4890
70.6977	33.8264	0.4847
70.7258	34.6111	0.4903
70.7538	35.0486	0.4933
70.7819	35.1944	0.4944
70.8099	35.4306	0.4960
70.8380	34.9167	0.4924
70.8660	34.8472	0.4919
70.8941	35.4444	0.4961
70.9221	34.6667	0.4907
70.9502	34.1181	0.4868
70.9782	34.7292	0.4911
71.0063	35.0000	0.4930
71.0343	34.2708	0.4878
71.0624	36.0625	0.5004
71.0904	36.0208	0.5001
71.1185	36.1944	0.5013
71.1465	35.3750	0.4956
71.1746	35.3472	0.4954
71.2026	36.2431	0.5017
71.2306	35.9653	0.4998
71.2587	34.9097	0.4924
71.2867	35.6181	0.4973
71.3148	37.0000	0.5069
71.3428	36.2639	0.5018
71.3709	36.9028	0.5062
71.3989	35.9167	0.4994
71.4270	37.0903	0.5075
71.4550	37.3056	0.5090
71.4831	37.0347	0.5071
71.5111	36.6944	0.5048
71.5392	37.2986	0.5089
71.5672	38.1736	0.5149
71.5953	36.9792	0.5068
71.6233	37.1736	0.5081
71.6514	38.3611	0.5161
71.6794	37.5556	0.5107
71.7075	38.3611	0.5161
71.7355	37.6667	0.5114
71.7636	37.8403	0.5126
71.7916	38.1111	0.5145
71.8197	38.6250	0.5179
71.8477	39.0625	0.5208
71.8758	39.6597	0.5248
71.9038	38.8056	0.5191
71.9319	39.8264	0.5259
71.9599	40.0625	0.5275
71.9880	40.1528	0.5281
72.0160	39.2986	0.5224
72.0441	40.4514	0.5300
72.0721	39.7500	0.5254
72.1002	40.8403	0.5326
72.1282	40.9306	0.5331
72.1562	40.9028	0.5330
72.1843	41.7986	0.5388
72.2123	41.9306	0.5396
72.2404	42.7778	0.5450
72.2684	41.4236	0.5363
72.2965	42.1319	0.5409
72.3245	43.2569	0.5481
72.3526	44.0972	0.5534
72.3806	44.8194	0.5579
72.4087	45.2986	0.5609
72.4367	44.7917	0.5577
72.4648	45.3819	0.5614
72.4928	46.1667	0.5662
72.5209	46.0556	0.5655
72.5489	47.5694	0.5748
72.5770	49.3681	0.5855
72.6050	50.4792	0.5921
72.6331	51.3264	0.5970
72.6611	52.0139	0.6010
72.6892	53.0069	0.6067
72.7172	53.6319	0.6103
72.7453	55.4375	0.6205
72.7733	57.5278	0.6321
72.8014	58.8750	0.6394
72.8294	60.1111	0.6461
72.8575	62.9653	0.6613
72.8855	65.3403	0.6736
72.9136	66.7292	0.6807
72.9416	66.7708	0.6809
72.9697	70.0625	0.6975
72.9977	70.7778	0.7011
73.0258	75.1528	0.7224
73.0538	76.7292	0.7300
73.0819	79.3264	0.7422
73.1099	83.9028	0.7633
73.1379	84.5278	0.7662
73.1660	88.2847	0.7830
73.1940	91.3542	0.7965
73.2221	94.6319	0.8107
73.2501	95.9444	0.8163
73.2782	98.0833	0.8253
73.3062	102.3542	0.8431
73.3343	105.0069	0.8539
73.3623	109.1944	0.8708
73.3904	113.1250	0.8863
73.4184	117.7292	0.9042
73.4465	122.2847	0.9215
73.4745	125.2431	0.9326
73.5026	129.8264	0.9495
73.5306	136.6250	0.9741
73.5587	140.4722	0.9877
73.5867	144.5486	1.0019
73.6148	150.1944	1.0213
73.6428	157.0833	1.0444
73.6709	164.9097	1.0701
73.6989	168.5972	1.0820
73.7270	173.8542	1.0988
73.7550	180.9583	1.1210
73.7831	184.0069	1.1304
73.8111	190.5486	1.1503
73.8392	195.9444	1.1665
73.8672	201.2222	1.1821
73.8953	204.4861	1.1917
73.9233	210.1597	1.2081
73.9514	211.0486	1.2106
73.9794	212.8403	1.2158
74.0075	216.1875	1.2253
74.0355	215.7778	1.2241
74.0636	216.9861	1.2275
74.0916	216.8056	1.2270
74.1196	218.5208	1.2319
74.1477	212.7222	1.2154
74.1757	212.3958	1.2145
74.2038	207.1736	1.1995
74.2318	203.4931	1.1888
74.2599	198.7431	1.1748
74.2879	193.1250	1.1581
74.3160	189.7708	1.1480
74.3440	183.8472	1.1299
74.3721	176.9931	1.1087
74.4001	172.3819	1.0941
74.4282	165.0069	1.0705
74.4562	161.6597	1.0595
74.4843	154.4167	1.0355
74.5123	148.4861	1.0155
74.5404	142.1181	0.9934
74.5684	137.1944	0.9761
74.5965	130.1319	0.9506
74.6245	123.9722	0.9279
74.6526	116.0139	0.8976
74.6806	112.5903	0.8842
74.7087	108.9861	0.8700
74.7367	102.4306	0.8434
74.7648	98.1458	0.8256
74.7928	94.3264	0.8093
74.8209	90.0972	0.7910
74.8489	86.4306	0.7747
74.8770	81.9306	0.7543
74.9050	78.2222	0.7370
74.9331	75.0972	0.7222
74.9611	73.5694	0.7148
74.9892	69.9375	0.6969
75.0172	67.9236	0.6868
75.0452	65.3472	0.6736
75.0733	63.0278	0.6616
75.1013	61.4097	0.6530
75.1294	59.1389	0.6408
75.1574	59.3750	0.6421
75.1855	57.7014	0.6330
75.2135	55.5556	0.6211
75.2416	54.1250	0.6131
75.2696	52.5625	0.6042
75.2977	51.0139	0.5952
75.3257	50.0208	0.5894
75.3538	50.8958	0.5945
75.3818	49.0000	0.5833
75.4099	49.2083	0.5846
75.4379	47.8333	0.5763
75.4660	46.9861	0.5712
75.4940	45.2986	0.5609
75.5221	46.2778	0.5669
75.5501	44.4792	0.5558
75.5782	45.4167	0.5616
75.6062	45.2361	0.5605
75.6343	43.1528	0.5474
75.6623	43.5069	0.5497
75.6904	42.2292	0.5415
75.7184	42.2361	0.5416
75.7465	41.9722	0.5399
75.7745	41.6389	0.5377
75.8026	42.1736	0.5412
75.8306	40.9167	0.5331
75.8587	41.2986	0.5355
75.8867	39.6042	0.5244
75.9148	40.6667	0.5314
75.9428	40.0486	0.5274
75.9709	39.9375	0.5266
75.9989	39.8125	0.5258
76.0269	39.7292	0.5253
76.0550	39.7917	0.5257
76.0830	39.8403	0.5260
76.1111	39.9097	0.5265
76.1391	38.6250	0.5179
76.1672	39.3264	0.5226
76.1952	39.5833	0.5243
76.2233	38.4236	0.5166
76.2513	38.9514	0.5201
76.2794	38.6181	0.5179
76.3074	38.4097	0.5165
76.3355	38.6667	0.5182
76.3635	37.1528	0.5079
76.3916	39.0139	0.5205
76.4196	37.6597	0.5114
76.4477	37.2708	0.5087
76.4757	38.3056	0.5158
76.5038	39.0347	0.5206
76.5318	38.7778	0.5189
76.5599	38.5000	0.5171
76.5879	37.9792	0.5136
76.6160	38.3333	0.5159
76.6440	38.3264	0.5159
76.6721	38.4167	0.5165
76.7001	38.6806	0.5183
76.7282	38.5417	0.5173
76.7562	38.3194	0.5159
76.7843	38.3125	0.5158
76.8123	38.4931	0.5170
76.8404	39.0000	0.5204
76.8684	38.6806	0.5183
76.8965	38.8819	0.5196
76.9245	38.7986	0.5191
76.9525	37.8542	0.5127
76.9806	38.6250	0.5179
77.0086	38.1736	0.5149
77.0367	37.2292	0.5085
77.0647	37.5764	0.5108
77.0928	38.4375	0.5166
77.1208	38.2778	0.5156
77.1489	38.3194	0.5159
77.1769	36.4167	0.5029
77.2050	37.0694	0.5074
77.2330	37.1042	0.5076
77.2611	35.7708	0.4984
77.2891	36.5833	0.5040
77.3172	35.2431	0.4947
77.3452	36.2778	0.5019
77.3733	35.6319	0.4974
77.4013	35.8333	0.4988
77.4294	35.3681	0.4956
77.4574	34.4306	0.4890
77.4855	34.6597	0.4906
77.5135	33.9861	0.4858
77.5416	34.4722	0.4893
77.5696	34.5000	0.4895
77.5977	34.2708	0.4878
77.6257	33.7986	0.4845
77.6538	33.7361	0.4840
77.6818	33.2361	0.4804
77.7099	33.2917	0.4808
77.7379	33.7292	0.4840
77.7660	33.8194	0.4846
77.7940	34.1806	0.4872
77.8221	33.0139	0.4788
77.8501	33.5625	0.4828
77.8782	33.7847	0.4844
77.9062	33.8403	0.4848
77.9342	34.2222	0.4875
77.9623	33.4167	0.4817
77.9903	33.1042	0.4795
78.0184	32.9167	0.4781
78.0464	33.4375	0.4819
78.0745	34.3403	0.4883
78.1025	33.5417	0.4826
78.1306	33.8333	0.4847
78.1586	32.9097	0.4781
78.1867	32.7569	0.4769
78.2147	33.2222	0.4803
78.2428	33.5903	0.4830
78.2708	33.7639	0.4842
78.2989	33.3889	0.4815
78.3269	33.2708	0.4807
78.3550	33.3125	0.4810
78.3830	32.8889	0.4779
78.4111	32.3542	0.4740
78.4391	32.7986	0.4773
78.4672	33.2014	0.4802
78.4952	33.4861	0.4822
78.5233	32.8542	0.4777
78.5513	32.1389	0.4724
78.5794	33.0556	0.4791
78.6074	33.3056	0.4809
78.6355	33.2292	0.4804
78.6635	32.7778	0.4771
78.6916	33.0556	0.4791
78.7196	32.5556	0.4755
78.7477	31.8611	0.4704
78.7757	33.7639	0.4842
78.8038	34.0764	0.4865
78.8318	32.8958	0.4780
78.8598	33.9375	0.4855
78.8879	33.0903	0.4794
78.9159	33.7222	0.4839
78.9440	32.2222	0.4730
78.9720	32.4792	0.4749
79.0001	32.8958	0.4780
79.0281	34.0208	0.4861
79.0562	34.2014	0.4873
79.0842	32.8056	0.4773
79.1123	32.2500	0.4732
79.1403	32.0278	0.4716
79.1684	32.0278	0.4716
79.1964	32.8681	0.4778
79.2245	32.6250	0.4760
79.2525	33.3403	0.4812
79.2806	32.9306	0.4782
79.3086	32.6597	0.4762
79.3367	32.5347	0.4753
79.3647	32.6667	0.4763
79.3928	32.3264	0.4738
79.4208	32.0139	0.4715
79.4489	32.2708	0.4734
79.4769	32.5833	0.4757
79.5050	32.7292	0.4767
79.5330	32.6181	0.4759
79.5611	32.6458	0.4761
79.5891	32.8472	0.4776
79.6172	32.6389	0.4761
79.6452	33.8819	0.4851
79.6733	33.0347	0.4790
79.7013	32.9444	0.4783
79.7294	31.5278	0.4679
79.7574	32.8264	0.4775
79.7855	33.2153	0.4803
79.8135	32.7708	0.4770
79.8415	32.5556	0.4755
79.8696	32.0000	0.4714
79.8976	33.6944	0.4837
79.9257	33.2569	0.4806
79.9537	32.4444	0.4747
79.9818	32.4514	0.4747
80.0098	33.1250	0.4796
80.0379	33.2222	0.4803
80.0659	32.9167	0.4781
80.0940	33.6875	0.4837
80.1220	32.6597	0.4762
80.1501	32.7222	0.4767
80.1781	33.2639	0.4806
80.2062	33.3472	0.4812
80.2342	33.1458	0.4798
80.2623	33.2292	0.4804
80.2903	33.3542	0.4813
80.3184	32.9097	0.4781
80.3464	33.0625	0.4792
80.3745	33.1042	0.4795
80.4025	32.8125	0.4774
80.4306	31.8056	0.4700
80.4586	32.5556	0.4755
80.4867	33.6319	0.4833
80.5147	32.9306	0.4782
80.5428	32.3194	0.4738
80.5708	32.4028	0.4744
80.5989	32.8264	0.4775
80.6269	32.3958	0.4743
80.6550	32.8194	0.4774
80.6830	32.5556	0.4755
80.7111	32.7222	0.4767
80.7391	32.7847	0.4771
80.7672	32.5625	0.4755
80.7952	33.2569	0.4806
80.8232	31.8333	0.4702
80.8513	33.0833	0.4793
80.8793	32.9028	0.4780
80.9074	32.3750	0.4742
80.9354	32.6667	0.4763
80.9635	33.1667	0.4799
80.9915	32.5903	0.4757
81.0196	32.1597	0.4726
81.0476	32.5694	0.4756
81.0757	32.4306	0.4746
81.1037	32.2083	0.4729
81.1318	31.8472	0.4703
81.1598	32.4653	0.4748
81.1879	31.5000	0.4677
81.2159	32.0903	0.4721
81.2440	32.7847	0.4771
81.2720	32.0972	0.4721
81.3001	32.7292	0.4767
81.3281	32.8958	0.4780
81.3562	32.5278	0.4753
81.3842	31.3403	0.4665
81.4123	32.3403	0.4739
81.4403	31.9028	0.4707
81.4684	32.4861	0.4750
81.4964	32.2361	0.4731
81.5245	32.4306	0.4746
81.5525	33.0139	0.4788
81.5806	32.5903	0.4757
81.6086	32.5278	0.4753
81.6367	32.0972	0.4721
81.6647	32.2153	0.4730
81.6928	32.4444	0.4747
81.7208	31.9514	0.4710
81.7488	32.9722	0.4785
81.7769	31.3889	0.4669
81.8049	31.2431	0.4658
81.8330	31.9444	0.4710
81.8610	32.5764	0.4756
81.8891	31.8333	0.4702
81.9171	32.2847	0.4735
81.9452	31.6181	0.4686
81.9732	31.7431	0.4695
82.0013	32.1319	0.4724
82.0293	32.6458	0.4761
82.0574	32.5625	0.4755
82.0854	32.0833	0.4720
82.1135	32.7847	0.4771
82.1415	32.3333	0.4739
82.1696	32.0972	0.4721
82.1976	32.3889	0.4743
82.2257	32.0556	0.4718
82.2537	31.4653	0.4674
82.2818	32.3542	0.4740
82.3098	32.2014	0.4729
82.3379	32.8194	0.4774
82.3659	32.1597	0.4726
82.3940	33.2639	0.4806
82.4220	32.1181	0.4723
82.4501	32.5000	0.4751
82.4781	32.6667	0.4763
82.5062	31.6389	0.4687
82.5342	31.9444	0.4710
82.5623	31.5486	0.4681
82.5903	32.8056	0.4773
82.6184	32.2778	0.4734
82.6464	32.5139	0.4752
82.6745	32.6111	0.4759
82.7025	32.0208	0.4716
82.7305	31.9653	0.4711
82.7586	31.3889	0.4669
82.7866	32.3056	0.4736
82.8147	32.8958	0.4780
82.8427	32.4931	0.4750
82.8708	32.1389	0.4724
82.8988	32.2431	0.4732
82.9269	32.1875	0.4728
82.9549	32.1806	0.4727
82.9830	32.2639	0.4733
83.0110	31.8403	0.4702
83.0391	32.0903	0.4721
83.0671	32.2708	0.4734
83.0952	31.8611	0.4704
83.1232	32.8958	0.4780
83.1513	32.3611	0.4741
83.1793	32.5417	0.4754
83.2074	32.0903	0.4721
83.2354	32.5625	0.4755
83.2635	32.0208	0.4716
83.2915	32.4931	0.4750
83.3196	32.1458	0.4725
83.3476	32.7847	0.4771
83.3757	31.4653	0.4674
83.4037	31.9931	0.4714
83.4318	32.2708	0.4734
83.4598	32.3958	0.4743
83.4879	32.7500	0.4769
83.5159	31.6042	0.4685
83.5440	32.9861	0.4786
83.5720	32.4722	0.4749
83.6001	32.6458	0.4761
83.6281	31.4097	0.4670
83.6561	32.3472	0.4740
83.6842	33.5625	0.4828
83.7122	32.6944	0.4765
83.7403	32.6181	0.4759
83.7683	32.6736	0.4763
83.7964	31.8194	0.4701
83.8244	32.3889	0.4743
83.8525	31.8264	0.4701
83.8805	32.2222	0.4730
83.9086	32.3681	0.4741
83.9366	32.7014	0.4765
83.9647	31.7500	0.4696
83.9927	32.5556	0.4755
84.0208	32.6250	0.4760
84.0488	32.4931	0.4750
84.0769	33.0069	0.4788
84.1049	32.2569	0.4733
84.1330	32.6458	0.4761
84.1610	33.1597	0.4799
84.1891	32.8056	0.4773
84.2171	32.5347	0.4753
84.2452	32.7153	0.4766
84.2732	32.8403	0.4776
84.3013	31.5764	0.4683
84.3293	33.2361	0.4804
84.3574	31.5556	0.4681
84.3854	32.8750	0.4778
84.4135	32.1042	0.4722
84.4415	32.6319	0.4760
84.4696	32.6250	0.4760
84.4976	33.1875	0.4801
84.5257	33.3958	0.4816
84.5537	32.1250	0.4723
84.5818	33.2847	0.4808
84.6098	32.6806	0.4764
84.6378	32.4028	0.4744
84.6659	32.8403	0.4776
84.6939	33.3056	0.4809
84.7220	33.2708	0.4807
84.7500	33.0486	0.4791
84.7781	32.6111	0.4759
84.8061	33.5903	0.4830
84.8342	33.4514	0.4820
84.8622	33.7986	0.4845
84.8903	33.9028	0.4852
84.9183	33.0000	0.4787
84.9464	33.5764	0.4829
84.9744	33.0903	0.4794
85.0025	33.9167	0.4853
85.0305	33.1181	0.4796
85.0586	32.2708	0.4734
85.0866	33.7917	0.4844
85.1147	33.3750	0.4814
85.1427	33.4167	0.4817
85.1708	33.3056	0.4809
85.1988	33.2431	0.4805
85.2269	33.0556	0.4791
85.2549	34.1458	0.4870
85.2830	33.3889	0.4815
85.3110	33.5139	0.4824
85.3391	33.8472	0.4848
85.3671	33.3472	0.4812
85.3952	33.1875	0.4801
85.4232	33.9722	0.4857
85.4513	33.9375	0.4855
85.4793	34.6667	0.4907
85.5074	33.6250	0.4832
85.5354	34.2222	0.4875
85.5634	34.5764	0.4900
85.5915	33.4583	0.4820
85.6195	34.1181	0.4868
85.6476	33.5694	0.4828
85.6756	34.6181	0.4903
85.7037	34.6944	0.4908
85.7317	33.8750	0.4850
85.7598	34.4792	0.4893
85.7878	34.4444	0.4891
85.8159	33.5764	0.4829
85.8439	35.2431	0.4947
85.8720	33.1181	0.4796
85.9000	34.4653	0.4892
85.9281	34.8681	0.4921
85.9561	34.5000	0.4895
85.9842	34.7917	0.4915
86.0122	34.4931	0.4894
86.0403	34.9653	0.4928
86.0683	35.0278	0.4932
86.0964	35.0417	0.4933
86.1244	35.0000	0.4930
86.1525	35.7431	0.4982
86.1805	35.5833	0.4971
86.2086	35.0347	0.4933
86.2366	35.2569	0.4948
86.2647	36.2569	0.5018
86.2927	34.9653	0.4928
86.3208	36.5764	0.5040
86.3488	36.0694	0.5005
86.3769	36.5833	0.5040
86.4049	37.0764	0.5074
86.4330	37.3125	0.5090
86.4610	36.9375	0.5065
86.4891	37.0764	0.5074
86.5171	37.8681	0.5128
86.5451	38.3472	0.5160
86.5732	37.9375	0.5133
86.6012	38.5625	0.5175
86.6293	38.8681	0.5195
86.6573	39.0000	0.5204
86.6854	39.8611	0.5261
86.7134	39.8958	0.5264
86.7415	41.7708	0.5386
86.7695	40.9167	0.5331
86.7976	42.1736	0.5412
86.8256	41.8750	0.5393
86.8537	42.2500	0.5417
86.8817	42.2847	0.5419
86.9098	43.5694	0.5501
86.9378	43.4167	0.5491
86.9659	44.2500	0.5543
86.9939	44.6250	0.5567
87.0220	45.4583	0.5619
87.0500	46.0833	0.5657
87.0781	47.1181	0.5720
87.1061	46.9931	0.5713
87.1342	47.3819	0.5736
87.1622	49.7292	0.5877
87.1903	50.2569	0.5908
87.2183	49.4722	0.5861
87.2464	50.3056	0.5911
87.2744	51.6389	0.5988
87.3025	53.4097	0.6090
87.3305	55.0278	0.6182
87.3586	55.0625	0.6184
87.3866	55.9514	0.6233
87.4147	56.1389	0.6244
87.4427	58.8264	0.6392
87.4707	59.1597	0.6410
87.4988	61.1806	0.6518
87.5268	61.6667	0.6544
87.5549	62.2500	0.6575
87.5829	64.4722	0.6691
87.6110	65.6181	0.6750
87.6390	65.8194	0.6761
87.6671	67.1458	0.6829
87.6951	70.2986	0.6987
87.7232	70.4653	0.6995
87.7512	71.3681	0.7040
87.7793	73.1042	0.7125
87.8073	73.7500	0.7156
87.8354	75.3056	0.7232
87.8634	75.3750	0.7235
87.8915	76.5139	0.7289
87.9195	77.6597	0.7344
87.9476	77.3264	0.7328
87.9756	79.3889	0.7425
88.0037	78.7153	0.7393
88.0317	79.3264	0.7422
88.0598	79.6389	0.7437
88.0878	79.1736	0.7415
88.1159	80.5486	0.7479
88.1439	78.9444	0.7404
88.1720	78.9722	0.7406
88.2000	79.8542	0.7447
88.2281	79.7569	0.7442
88.2561	79.0208	0.7408
88.2842	77.2083	0.7322
88.3122	76.5903	0.7293
88.3403	76.0625	0.7268
88.3683	74.2847	0.7182
88.3964	74.6250	0.7199
88.4244	71.7431	0.7058
88.4524	71.9167	0.7067
88.4805	70.5625	0.7000
88.5085	68.5486	0.6900
88.5366	68.0278	0.6873
88.5646	66.7153	0.6807
88.5927	65.2847	0.6733
88.6207	64.9931	0.6718
88.6488	63.1944	0.6625
88.6768	62.0347	0.6564
88.7049	60.4028	0.6477
88.7329	58.5278	0.6375
88.7610	56.4306	0.6260
88.7890	55.4583	0.6206
88.8171	54.5000	0.6152
88.8451	54.0556	0.6127
88.8732	53.0069	0.6067
88.9012	50.9028	0.5946
88.9293	49.1667	0.5843
88.9573	49.8056	0.5881
88.9854	49.4444	0.5860
89.0134	48.3403	0.5794
89.0415	47.6597	0.5753
89.0695	47.4792	0.5742
89.0976	46.3472	0.5673
89.1256	45.7361	0.5636
89.1537	45.4444	0.5618
89.1817	43.5764	0.5501
89.2098	43.2778	0.5482
89.2378	42.5625	0.5437
89.2659	42.9514	0.5461
89.2939	42.9236	0.5460
89.3220	42.9514	0.5461
89.3500	41.2917	0.5355
89.3781	39.3958	0.5231
89.4061	40.4514	0.5300
89.4341	39.5208	0.5239
89.4622	39.8819	0.5263
89.4902	39.8889	0.5263
89.5183	38.9028	0.5198
89.5463	38.5069	0.5171
89.5744	38.3194	0.5159
89.6024	38.5556	0.5174
89.6305	38.0972	0.5144
89.6585	38.0694	0.5142
89.6866	38.7778	0.5189
89.7146	36.3958	0.5027
89.7427	36.6042	0.5042
89.7707	36.7569	0.5052
89.7988	36.5556	0.5038
89.8268	36.1111	0.5008
89.8549	36.6042	0.5042
89.8829	36.1042	0.5007
89.9110	36.1319	0.5009
89.9390	35.6667	0.4977
89.9671	36.7083	0.5049
89.9951	36.7222	0.5050
90.0232	35.8889	0.4992
90.0512	35.8264	0.4988
90.0793	34.7986	0.4916
90.1073	35.6111	0.4973
90.1354	35.7083	0.4980
90.1634	36.0625	0.5004
90.1915	35.7153	0.4980
90.2195	34.3681	0.4885
90.2476	35.1736	0.4942
90.2756	34.6528	0.4906
90.3037	35.4861	0.4964
90.3317	34.3889	0.4887
90.3597	35.1042	0.4937
90.3878	35.1250	0.4939
90.4158	35.2778	0.4950
90.4439	34.5486	0.4898
90.4719	34.5556	0.4899
90.5000	34.2014	0.4873
90.5280	35.2569	0.4948
90.5561	34.4583	0.4892
90.5841	34.3125	0.4881
90.6122	35.0625	0.4934
90.6402	34.0764	0.4865
90.6683	34.3889	0.4887
90.6963	34.2708	0.4878
90.7244	34.2500	0.4877
90.7524	35.6389	0.4975
90.7805	34.2569	0.4877
90.8085	34.4722	0.4893
90.8366	34.8750	0.4921
90.8646	33.4097	0.4817
90.8927	33.8958	0.4852
90.9207	35.3750	0.4956
90.9488	34.3750	0.4886
90.9768	35.0694	0.4935
91.0049	34.5625	0.4899
91.0329	35.5278	0.4967
91.0610	34.6528	0.4906
91.0890	35.2986	0.4951
91.1171	35.5417	0.4968
91.1451	34.9306	0.4925
91.1732	34.1597	0.4871
91.2012	35.7847	0.4985
91.2293	34.4028	0.4888
91.2573	34.9375	0.4926
91.2854	34.5278	0.4897
91.3134	34.6944	0.4908
91.3414	35.7708	0.4984
91.3695	34.1667	0.4871
91.3975	35.0764	0.4935
91.4256	36.1111	0.5008
91.4536	34.7153	0.4910
91.4817	34.8194	0.4917
91.5097	35.3056	0.4952
91.5378	34.3333	0.4883
91.5658	35.2639	0.4949
91.5939	34.5764	0.4900
91.6219	35.9236	0.4995
91.6500	35.6736	0.4977
91.6780	35.3611	0.4955
91.7061	36.8194	0.5057
91.7341	36.0764	0.5005
91.7622	35.4792	0.4964
91.7902	35.7917	0.4986
91.8183	35.6458	0.4975
91.8463	36.6736	0.5047
91.8744	36.1042	0.5007
91.9024	35.4653	0.4963
91.9305	35.4653	0.4963
91.9585	36.1111	0.5008
91.9866	35.4236	0.4960
92.0146	35.7431	0.4982
92.0427	35.9306	0.4995
92.0707	35.0069	0.4931
92.0988	34.7431	0.4912
92.1268	35.5833	0.4971
92.1549	35.3125	0.4952
92.1829	34.9931	0.4930
92.2110	34.1042	0.4867
92.2390	34.1528	0.4870
92.2670	35.4931	0.4965
92.2951	34.6597	0.4906
92.3231	34.6806	0.4908
92.3512	33.7431	0.4841
92.3792	34.4097	0.4888
92.4073	33.7986	0.4845
92.4353	34.7778	0.4914
92.4634	34.5278	0.4897
92.4914	34.2917	0.4880
92.5195	34.1181	0.4868
92.5475	34.5208	0.4896
92.5756	34.1250	0.4868
92.6036	34.9653	0.4928
92.6317	35.0972	0.4937
92.6597	34.3056	0.4881
92.6878	34.3472	0.4884
92.7158	32.9722	0.4785
92.7439	33.6250	0.4832
92.7719	33.5903	0.4830
92.8000	34.6111	0.4903
92.8280	35.4097	0.4959
92.8561	34.2847	0.4879
92.8841	33.7778	0.4843
92.9122	33.6458	0.4834
92.9402	34.7639	0.4913
92.9683	33.9722	0.4857
92.9963	33.2222	0.4803
93.0244	34.7222	0.4910
93.0524	34.3333	0.4883
93.0805	33.8542	0.4849
93.1085	33.4097	0.4817
93.1366	34.2222	0.4875
93.1646	34.1528	0.4870
93.1927	34.4444	0.4891
93.2207	35.1250	0.4939
93.2487	33.8194	0.4846
93.2768	34.1597	0.4871
93.3048	33.9722	0.4857
93.3329	33.3125	0.4810
93.3609	34.4792	0.4893
93.3890	33.9861	0.4858
93.4170	34.0278	0.4861
93.4451	33.4931	0.4823
93.4731	33.4931	0.4823
93.5012	34.6319	0.4904
93.5292	33.5417	0.4826
93.5573	33.1389	0.4797
93.5853	33.2847	0.4808
93.6134	33.8472	0.4848
93.6414	33.4444	0.4819
93.6695	34.5069	0.4895
93.6975	33.2708	0.4807
93.7256	33.7708	0.4843
93.7536	34.2083	0.4874
93.7817	33.9653	0.4857
93.8097	34.6181	0.4903
93.8378	34.7014	0.4909
93.8658	33.3681	0.4814
93.8939	33.2431	0.4805
93.9219	34.2778	0.4879
93.9500	35.3958	0.4958
93.9780	33.4583	0.4820
94.0061	34.5694	0.4900
94.0341	33.6319	0.4833
94.0622	34.0208	0.4861
94.0902	33.8472	0.4848
94.1183	33.7917	0.4844
94.1463	33.4306	0.4818
94.1743	33.2917	0.4808
94.2024	33.5903	0.4830
94.2304	33.8125	0.4846
94.2585	34.4444	0.4891
94.2865	33.9444	0.4855
94.3146	33.0625	0.4792
94.3426	34.8403	0.4919
94.3707	34.3750	0.4886
94.3987	34.3472	0.4884
94.4268	33.4931	0.4823
94.4548	34.2153	0.4874
94.4829	33.5972	0.4830
94.5109	34.0903	0.4866
94.5390	33.1458	0.4798
94.5670	34.5347	0.4897
94.5951	34.2014	0.4873
94.6231	34.7778	0.4914
94.6512	34.2431	0.4876
94.6792	34.5833	0.4901
94.7073	34.9028	0.4923
94.7353	34.4514	0.4891
94.7634	34.0972	0.4866
94.7914	34.4931	0.4894
94.8195	34.6181	0.4903
94.8475	33.4444	0.4819
94.8756	35.1667	0.4942
94.9036	34.2361	0.4876
94.9317	34.4931	0.4894
94.9597	32.7083	0.4766
94.9878	34.4028	0.4888
95.0158	34.4514	0.4891
95.0439	33.5625	0.4828
95.0719	34.9722	0.4928
95.1000	33.7222	0.4839
95.1280	35.0347	0.4933
95.1560	34.5278	0.4897
95.1841	34.0139	0.4860
95.2121	34.1458	0.4870
95.2402	35.0486	0.4933
95.2682	34.4306	0.4890
95.2963	34.3403	0.4883
95.3243	34.9722	0.4928
95.3524	34.1597	0.4871
95.3804	34.7778	0.4914
95.4085	34.1528	0.4870
95.4365	34.2847	0.4879
95.4646	35.4861	0.4964
95.4926	34.8403	0.4919
95.5207	34.4514	0.4891
95.5487	35.4861	0.4964
95.5768	34.7986	0.4916
95.6048	35.4097	0.4959
95.6329	34.9722	0.4928
95.6609	34.8542	0.4920
95.6890	33.9514	0.4856
95.7170	34.4097	0.4888
95.7451	34.3333	0.4883
95.7731	33.9167	0.4853
95.8012	35.6042	0.4972
95.8292	34.6597	0.4906
95.8573	34.9583	0.4927
95.8853	34.8333	0.4918
95.9134	34.6667	0.4907
95.9414	34.5139	0.4896
95.9695	34.8611	0.4920
95.9975	34.6875	0.4908
96.0256	35.9444	0.4996
96.0536	35.3333	0.4953
96.0816	35.1458	0.4940
96.1097	35.4236	0.4960
96.1377	35.1944	0.4944
96.1658	36.0208	0.5001
96.1938	35.1389	0.4940
96.2219	35.1667	0.4942
96.2499	34.2014	0.4873
96.2780	35.0764	0.4935
96.3060	35.7917	0.4986
96.3341	35.2361	0.4947
96.3621	35.6319	0.4974
96.3902	35.0347	0.4933
96.4182	35.2569	0.4948
96.4463	35.3333	0.4953
96.4743	35.4306	0.4960
96.5024	35.3194	0.4953
96.5304	34.9514	0.4927
96.5585	34.4375	0.4890
96.5865	35.1597	0.4941
96.6146	34.7917	0.4915
96.6426	34.9931	0.4930
96.6707	36.0069	0.5000
96.6987	35.0069	0.4931
96.7268	35.2083	0.4945
96.7548	35.5556	0.4969
96.7829	34.8194	0.4917
96.8109	35.9583	0.4997
96.8390	36.0069	0.5000
96.8670	35.8889	0.4992
96.8951	35.3611	0.4955
96.9231	35.9167	0.4994
96.9512	36.4931	0.5034
96.9792	35.9028	0.4993
97.0073	35.8194	0.4987
97.0353	35.3403	0.4954
97.0633	35.8472	0.4989
97.0914	36.1528	0.5011
97.1194	36.3819	0.5026
97.1475	36.2014	0.5014
97.1755	36.1944	0.5013
97.2036	35.4931	0.4965
97.2316	35.8333	0.4988
97.2597	36.5625	0.5039
97.2877	35.4236	0.4960
97.3158	35.6597	0.4976
97.3438	37.2639	0.5087
97.3719	36.1319	0.5009
97.3999	36.4931	0.5034
97.4280	37.4583	0.5100
97.4560	36.7014	0.5048
97.4841	36.0556	0.5004
97.5121	36.7083	0.5049
97.5402	36.2708	0.5019
97.5682	35.9444	0.4996
97.5963	36.1389	0.5010
97.6243	35.9306	0.4995
97.6524	36.5903	0.5041
97.6804	36.2083	0.5014
97.7085	35.7222	0.4981
97.7365	37.3125	0.5090
97.7646	36.4097	0.5028
97.7926	36.7222	0.5050
97.8207	36.6944	0.5048
97.8487	36.4931	0.5034
97.8768	36.5417	0.5037
97.9048	36.9375	0.5065
97.9329	36.3472	0.5024
97.9609	37.5069	0.5104
97.9890	37.2639	0.5087
98.0170	36.9653	0.5067
98.0450	37.5347	0.5105
98.0731	36.1458	0.5010
98.1011	38.1181	0.5145
98.1292	38.6875	0.5183
98.1572	36.9444	0.5065
98.1853	37.3403	0.5092
98.2133	37.7847	0.5122
98.2414	37.6458	0.5113
98.2694	37.7569	0.5121
98.2975	37.2153	0.5084
98.3255	36.5694	0.5039
98.3536	37.1250	0.5078
98.3816	37.2639	0.5087
98.4097	37.2778	0.5088
98.4377	38.1667	0.5148
98.4658	37.5625	0.5107
98.4938	38.5625	0.5175
98.5219	38.8472	0.5194
98.5499	37.9306	0.5132
98.5780	38.6389	0.5180
98.6060	38.4236	0.5166
98.6341	37.7500	0.5120
98.6621	37.5833	0.5109
98.6902	37.8333	0.5126
98.7182	38.0000	0.5137
98.7463	38.0972	0.5144
98.7743	39.2569	0.5221
98.8024	38.6944	0.5184
98.8304	37.9931	0.5137
98.8585	37.9167	0.5131
98.8865	38.3333	0.5159
98.9146	38.8125	0.5192
98.9426	38.1528	0.5147
98.9706	39.3472	0.5227
98.9987	38.7292	0.5186
99.0267	39.2431	0.5220
99.0548	39.9931	0.5270
99.0828	39.7083	0.5251
99.1109	39.8958	0.5264
99.1389	39.3194	0.5225
99.1670	39.6944	0.5250
99.1950	40.2014	0.5284
99.2231	40.8194	0.5324
99.2511	40.5833	0.5309
99.2792	39.7222	0.5252
99.3072	40.9028	0.5330
99.3353	40.0208	0.5272
99.3633	40.6875	0.5316
99.3914	40.4097	0.5297
99.4194	40.3472	0.5293
99.4475	40.1319	0.5279
99.4755	42.1458	0.5410
99.5036	42.1528	0.5410
99.5316	41.4514	0.5365
99.5597	42.9236	0.5460
99.5877	41.4375	0.5364
99.6158	42.9236	0.5460
99.6438	41.8333	0.5390
99.6719	42.4167	0.5427
99.6999	42.3403	0.5422
99.7280	42.3056	0.5420
99.7560	42.8611	0.5456
99.7841	44.9792	0.5589
99.8121	44.0903	0.5533
99.8402	44.6319	0.5567
99.8682	44.2500	0.5543
99.8963	44.3125	0.5547
99.9243	45.1389	0.5599
99.9523	45.7569	0.5637
99.9804	46.2569	0.5668
